4.921489420 179.0
5.038468263 176.0
5.155447106 203.0
5.272425949 191.0
5.389404792 204.0
5.506383635 207.0
5.623362478 216.0
5.740341321 186.0
5.857320164 243.0
5.974299007 242.0
6.091277850 211.0
6.208256693 245.0
6.325235536 256.0
6.442214380 271.0
6.559193223 241.0
6.676172066 265.0
6.793150909 277.0
6.910129752 296.0
7.027108595 270.0
7.144087438 285.0
7.261066281 300.0
7.378045124 264.0
7.495023967 290.0
7.612002810 317.0
7.728981653 293.0
7.845960496 314.0
7.962939339 323.0
8.079918182 287.0
8.196897025 314.0
8.313875868 328.0
8.430854711 320.0
8.547833554 320.0
8.664812397 321.0
8.781791240 340.0
8.898770083 318.0
9.015748926 353.0
9.132727769 335.0
9.249706613 339.0
9.366685456 364.0
9.483664299 334.0
9.600643142 321.0
9.717621985 373.0
9.834600828 348.0
9.951579671 352.0
10.068558514 345.0
10.185537357 365.0
10.302516200 344.0
10.419495043 383.0
10.536473886 352.0
10.653452729 392.0
10.770431572 354.0
10.887410415 379.0
11.004389258 401.0
11.121368101 360.0
11.238346944 353.0
11.355325787 373.0
11.472304630 368.0
11.589283473 351.0
11.706262316 369.0
11.823241159 371.0
11.940220002 392.0
12.057198845 367.0
12.174177689 359.0
12.291156532 400.0
12.408135375 378.0
12.525114218 360.0
12.642093061 339.0
12.759071904 352.0
12.876050747 355.0
12.993029590 392.0
13.110008433 352.0
13.226987276 373.0
13.343966119 342.0
13.460944962 376.0
13.577923805 362.0
13.694902648 361.0
13.811881491 366.0
13.928860334 366.0
14.045839177 373.0
14.162818020 342.0
14.279796863 324.0
14.396775706 369.0
14.513754549 368.0
14.630733392 366.0
14.747712235 357.0
14.864691078 339.0
14.981669922 365.0
15.098648765 333.0
15.215627608 387.0
15.332606451 313.0
15.449585294 367.0
15.566564137 373.0
15.683542980 371.0
15.800521823 325.0
15.917500666 337.0
16.034479509 326.0
16.151458352 318.0
16.268437195 317.0
16.385416038 319.0
16.502394881 312.0
16.619373724 339.0
16.736352567 310.0
16.853331410 291.0
16.970310253 296.0
17.087289096 334.0
17.204267939 269.0
17.321246782 300.0
17.438225625 265.0
17.555204468 285.0
17.672183311 280.0
17.789162155 280.0
17.906140998 299.0
18.023119841 296.0
18.140098684 262.0
18.257077527 254.0
18.374056370 248.0
18.491035213 242.0
18.608014056 270.0
18.724992899 264.0
18.841971742 273.0
18.958950585 269.0
19.075929428 293.0
19.192908271 242.0
19.309887114 239.0
19.426865957 255.0
19.543844800 246.0
19.660823643 220.0
19.777802486 243.0
19.894781329 257.0
20.011760172 257.0
20.128739015 234.0
20.245717858 242.0
20.362696701 238.0
20.479675544 210.0
20.596654387 232.0
20.713633231 218.0
20.830612074 236.0
20.947590917 227.0
21.064569760 217.0
21.181548603 203.0
21.298527446 206.0
21.415506289 208.0
21.532485132 221.0
21.649463975 203.0
21.766442818 195.0
21.883421661 232.0
22.000400504 216.0
22.117379347 211.0
22.234358190 232.0
22.351337033 172.0
22.468315876 220.0
22.585294719 193.0
22.702273562 196.0
22.819252405 181.0
22.936231248 180.0
23.053210091 209.0
23.170188934 167.0
23.287167777 184.0
23.404146620 169.0
23.521125464 184.0
23.638104307 153.0
23.755083150 172.0
23.872061993 172.0
23.989040836 172.0
24.106019679 175.0
24.222998522 167.0
24.339977365 182.0
24.456956208 161.0
24.573935051 176.0
24.690913894 142.0
24.807892737 180.0
24.924871580 162.0
25.041850423 165.0
25.158829266 168.0
25.275808109 147.0
25.392786952 168.0
25.509765795 180.0
25.626744638 153.0
25.743723481 158.0
25.860702324 190.0
25.977681167 165.0
26.094660010 176.0
26.211638853 133.0
26.328617696 141.0
26.445596540 156.0
26.562575383 165.0
26.679554226 135.0
26.796533069 166.0
26.913511912 141.0
27.030490755 156.0
27.147469598 153.0
27.264448441 125.0
27.381427284 151.0
27.498406127 152.0
27.615384970 168.0
27.732363813 142.0
27.849342656 127.0
27.966321499 127.0
28.083300342 155.0
28.200279185 153.0
28.317258028 136.0
28.434236871 148.0
28.551215714 140.0
28.668194557 182.0
28.785173400 158.0
28.902152243 166.0
29.019131086 154.0
29.136109929 147.0
29.253088773 129.0
29.370067616 148.0
29.487046459 214.0
29.604025302 229.0
29.721004145 147.0
29.837982988 128.0
29.954961831 112.0
30.071940674 135.0
30.188919517 129.0
30.305898360 126.0
30.422877203 106.0
30.539856046 117.0
30.656834889 135.0
30.773813732 107.0
30.890792575 111.0
31.007771418 103.0
31.124750261 113.0
31.241729104 104.0
31.358707947 133.0
31.475686790 106.0
31.592665633 108.0
31.709644476 118.0
31.826623319 132.0
31.943602162 117.0
32.060581005 119.0
32.177559849 129.0
32.294538692 114.0
32.411517535 113.0
32.528496378 94.0
32.645475221 131.0
32.762454064 138.0
32.879432907 112.0
32.996411750 98.0
33.113390593 115.0
33.230369436 113.0
33.347348279 108.0
33.464327122 113.0
33.581305965 114.0
33.698284808 121.0
33.815263651 125.0
33.932242494 124.0
34.049221337 119.0
34.166200180 129.0
34.283179023 124.0
34.400157866 129.0
34.517136709 140.0
34.634115552 122.0
34.751094395 148.0
34.868073238 175.0
34.985052082 166.0
35.102030925 156.0
35.219009768 163.0
35.335988611 163.0
35.452967454 169.0
35.569946297 149.0
35.686925140 207.0
35.803903983 174.0
35.920882826 187.0
36.037861669 214.0
36.154840512 221.0
36.271819355 187.0
36.388798198 167.0
36.505777041 187.0
36.622755884 223.0
36.739734727 214.0
36.856713570 189.0
36.973692413 214.0
37.090671256 214.0
37.207650099 228.0
37.324628942 213.0
37.441607785 208.0
37.558586628 218.0
37.675565471 229.0
37.792544315 231.0
37.909523158 210.0
38.026502001 236.0
38.143480844 255.0
38.260459687 230.0
38.377438530 254.0
38.494417373 268.0
38.611396216 232.0
38.728375059 249.0
38.845353902 248.0
38.962332745 262.0
39.079311588 280.0
39.196290431 266.0
39.313269274 275.0
39.430248117 242.0
39.547226960 324.0
39.664205803 327.0
39.781184646 332.0
39.898163489 266.0
40.015142332 284.0
40.132121175 330.0
40.249100018 269.0
40.366078861 328.0
40.483057704 303.0
40.600036547 300.0
40.717015391 320.0
40.833994234 333.0
40.950973077 342.0
41.067951920 325.0
41.184930763 362.0
41.301909606 318.0
41.418888449 346.0
41.535867292 346.0
41.652846135 353.0
41.769824978 460.0
41.886803821 567.0
42.003782664 601.0
42.120761507 552.0
42.237740350 402.0
42.354719193 355.0
42.471698036 390.0
42.588676879 345.0
42.705655722 333.0
42.822634565 383.0
42.939613408 366.0
43.056592251 374.0
43.173571094 448.0
43.290549937 502.0
43.407528780 697.0
43.524507624 746.0
43.641486467 668.0
43.758465310 560.0
43.875444153 453.0
43.992422996 428.0
44.109401839 378.0
44.226380682 344.0
44.343359525 375.0
44.460338368 386.0
44.577317211 358.0
44.694296054 383.0
44.811274897 437.0
44.928253740 427.0
45.045232583 445.0
45.162211426 393.0
45.279190269 348.0
45.396169112 344.0
45.513147955 306.0
45.630126798 357.0
45.747105641 290.0
45.864084484 293.0
45.981063327 320.0
46.098042170 351.0
46.215021013 324.0
46.331999856 326.0
46.448978700 302.0
46.565957543 317.0
46.682936386 350.0
46.799915229 305.0
46.916894072 321.0
47.033872915 353.0
47.150851758 332.0
47.267830601 342.0
47.384809444 371.0
47.501788287 364.0
47.618767130 399.0
47.735745973 320.0
47.852724816 399.0
47.969703659 366.0
48.086682502 383.0
48.203661345 361.0
48.320640188 362.0
48.437619031 366.0
48.554597874 498.0
48.671576717 513.0
48.788555560 572.0
48.905534403 604.0
49.022513246 551.0
49.139492089 476.0
49.256470933 403.0
49.373449776 341.0
49.490428619 358.0
49.607407462 353.0
49.724386305 341.0
49.841365148 365.0
49.958343991 380.0
50.075322834 372.0
50.192301677 424.0
50.309280520 382.0
50.426259363 458.0
50.543238206 453.0
50.660217049 543.0
50.777195892 536.0
50.894174735 541.0
51.011153578 520.0
51.128132421 450.0
51.245111264 501.0
51.362090107 453.0
51.479068950 345.0
51.596047793 372.0
51.713026636 342.0
51.830005479 332.0
51.946984322 351.0
52.063963165 326.0
52.180942009 340.0
52.297920852 324.0
52.414899695 352.0
52.531878538 357.0
52.648857381 298.0
52.765836224 316.0
52.882815067 357.0
52.999793910 325.0
53.116772753 342.0
53.233751596 334.0
53.350730439 334.0
53.467709282 320.0
53.584688125 323.0
53.701666968 342.0
53.818645811 302.0
53.935624654 333.0
54.052603497 327.0
54.169582340 298.0
54.286561183 323.0
54.403540026 307.0
54.520518869 362.0
54.637497712 380.0
54.754476555 345.0
54.871455398 325.0
54.988434242 344.0
55.105413085 337.0
55.222391928 342.0
55.339370771 312.0
55.456349614 352.0
55.573328457 317.0
55.690307300 312.0
55.807286143 319.0
55.924264986 339.0
56.041243829 287.0
56.158222672 333.0
56.275201515 358.0
56.392180358 345.0
56.509159201 332.0
56.626138044 338.0
56.743116887 364.0
56.860095730 340.0
56.977074573 362.0
57.094053416 352.0
57.211032259 348.0
57.328011102 323.0
57.444989945 325.0
57.561968788 381.0
57.678947631 321.0
57.795926475 326.0
57.912905318 389.0
58.029884161 307.0
58.146863004 318.0
58.263841847 311.0
58.380820690 312.0
58.497799533 316.0
58.614778376 369.0
58.731757219 333.0
58.848736062 298.0
58.965714905 351.0
59.082693748 361.0
59.199672591 331.0
59.316651434 303.0
59.433630277 346.0
59.550609120 331.0
59.667587963 346.0
59.784566806 320.0
59.901545649 325.0
60.018524492 310.0
60.135503335 372.0
60.252482178 375.0
60.369461021 359.0
60.486439864 341.0
60.603418707 344.0
60.720397551 388.0
60.837376394 382.0
60.954355237 393.0
61.071334080 338.0
61.188312923 331.0
61.305291766 372.0
61.422270609 352.0
61.539249452 368.0
61.656228295 375.0
61.773207138 361.0
61.890185981 325.0
62.007164824 340.0
62.124143667 360.0
62.241122510 373.0
62.358101353 318.0
62.475080196 342.0
62.592059039 321.0
62.709037882 335.0
62.826016725 307.0
62.942995568 360.0
63.059974411 335.0
63.176953254 361.0
63.293932097 341.0
63.410910940 320.0
63.527889784 374.0
63.644868627 350.0
63.761847470 335.0
63.878826313 341.0
63.995805156 350.0
64.112783999 337.0
64.229762842 320.0
64.346741685 347.0
64.463720528 378.0
64.580699371 359.0
64.697678214 340.0
64.814657057 401.0
64.931635900 403.0
65.048614743 375.0
65.165593586 387.0
65.282572429 337.0
65.399551272 392.0
65.516530115 364.0
65.633508958 361.0
65.750487801 388.0
65.867466644 399.0
65.984445487 361.0
66.101424330 389.0
66.218403173 358.0
66.335382016 337.0
66.452360860 388.0
66.569339703 352.0
66.686318546 353.0
66.803297389 358.0
66.920276232 365.0
67.037255075 366.0
67.154233918 342.0
67.271212761 406.0
67.388191604 354.0
67.505170447 341.0
67.622149290 339.0
67.739128133 355.0
67.856106976 325.0
67.973085819 364.0
68.090064662 337.0
68.207043505 355.0
68.324022348 304.0
68.441001191 342.0
68.557980034 346.0
68.674958877 340.0
68.791937720 337.0
68.908916563 388.0
69.025895406 367.0
69.142874249 332.0
69.259853093 359.0
69.376831936 383.0
69.493810779 298.0
69.610789622 357.0
69.727768465 344.0
69.844747308 359.0
69.961726151 334.0
70.078704994 361.0
70.195683837 382.0
70.312662680 339.0
70.429641523 392.0
70.546620366 430.0
70.663599209 383.0
70.780578052 342.0
70.897556895 380.0
71.014535738 327.0
71.131514581 371.0
71.248493424 395.0
71.365472267 380.0
71.482451110 389.0
71.599429953 435.0
71.716408796 400.0
71.833387639 510.0
71.950366482 523.0
72.067345325 628.0
72.184324169 833.0
72.301303012 1216.0
72.418281855 1712.0
72.535260698 1946.0
72.652239541 1761.0
72.769218384 1377.0
72.886197227 993.0
73.003176070 776.0
73.120154913 539.0
73.237133756 490.0
73.354112599 444.0
73.471091442 426.0
73.588070285 388.0
73.705049128 381.0
73.822027971 386.0
73.939006814 353.0
74.055985657 354.0
74.172964500 339.0
74.289943343 348.0
74.406922186 328.0
74.523901029 333.0
74.640879872 340.0
74.757858715 373.0
74.874837558 367.0
74.991816402 340.0
75.108795245 369.0
75.225774088 327.0
75.342752931 368.0
75.459731774 320.0
75.576710617 359.0
75.693689460 380.0
75.810668303 350.0
75.927647146 378.0
76.044625989 362.0
76.161604832 357.0
76.278583675 353.0
76.395562518 334.0
76.512541361 344.0
76.629520204 324.0
76.746499047 350.0
76.863477890 347.0
76.980456733 360.0
77.097435576 318.0
77.214414419 382.0
77.331393262 360.0
77.448372105 344.0
77.565350948 361.0
77.682329791 335.0
77.799308635 337.0
77.916287478 362.0
78.033266321 328.0
78.150245164 344.0
78.267224007 362.0
78.384202850 306.0
78.501181693 313.0
78.618160536 333.0
78.735139379 333.0
78.852118222 320.0
78.969097065 289.0
79.086075908 309.0
79.203054751 348.0
79.320033594 353.0
79.437012437 331.0
79.553991280 321.0
79.670970123 360.0
79.787948966 334.0
79.904927809 326.0
80.021906652 320.0
80.138885495 335.0
80.255864338 326.0
80.372843181 353.0
80.489822024 276.0
80.606800867 317.0
80.723779711 365.0
80.840758554 298.0
80.957737397 312.0
81.074716240 346.0
81.191695083 325.0
81.308673926 338.0
81.425652769 317.0
81.542631612 334.0
81.659610455 362.0
81.776589298 374.0
81.893568141 346.0
82.010546984 342.0
82.127525827 373.0
82.244504670 357.0
82.361483513 355.0
82.478462356 355.0
82.595441199 352.0
82.712420042 408.0
82.829398885 360.0
82.946377728 378.0
83.063356571 340.0
83.180335414 387.0
83.297314257 342.0
83.414293100 340.0
83.531271944 355.0
83.648250787 324.0
83.765229630 387.0
83.882208473 387.0
83.999187316 371.0
84.116166159 351.0
84.233145002 299.0
84.350123845 357.0
84.467102688 351.0
84.584081531 357.0
84.701060374 354.0
84.818039217 353.0
84.935018060 334.0
85.051996903 346.0
85.168975746 338.0
85.285954589 310.0
85.402933432 323.0
85.519912275 351.0
85.636891118 310.0
85.753869961 317.0
85.870848804 334.0
85.987827647 344.0
86.104806490 324.0
86.221785333 357.0
86.338764176 340.0
86.455743020 354.0
86.572721863 345.0
86.689700706 358.0
86.806679549 378.0
86.923658392 364.0
87.040637235 369.0
87.157616078 405.0
87.274594921 382.0
87.391573764 403.0
87.508552607 428.0
87.625531450 428.0
87.742510293 499.0
87.859489136 512.0
87.976467979 592.0
88.093446822 611.0
88.210425665 579.0
88.327404508 513.0
88.444383351 533.0
88.561362194 462.0
88.678341037 410.0
88.795319880 396.0
88.912298723 365.0
89.029277566 389.0
89.146256409 388.0
89.263235253 351.0
89.380214096 372.0
89.497192939 330.0
89.614171782 368.0
89.731150625 376.0
89.848129468 369.0
89.965108311 352.0
90.082087154 327.0
90.199065997 341.0
90.316044840 334.0
90.433023683 338.0
90.550002526 327.0
90.666981369 351.0
90.783960212 319.0
90.900939055 305.0
91.017917898 333.0
91.134896741 347.0
91.251875584 368.0
91.368854427 340.0
91.485833270 340.0
91.602812113 374.0
91.719790956 376.0
91.836769799 375.0
91.953748642 345.0
92.070727485 408.0
92.187706329 386.0
92.304685172 332.0
92.421664015 342.0
92.538642858 374.0
92.655621701 332.0
92.772600544 340.0
92.889579387 408.0
93.006558230 342.0
93.123537073 355.0
93.240515916 396.0
93.357494759 351.0
93.474473602 359.0
93.591452445 368.0
93.708431288 335.0
93.825410131 364.0
93.942388974 350.0
94.059367817 350.0
94.176346660 366.0
94.293325503 337.0
94.410304346 374.0
94.527283189 325.0
94.644262032 355.0
94.761240875 378.0
94.878219718 408.0
94.995198562 399.0
95.112177405 422.0
95.229156248 350.0
95.346135091 337.0
95.463113934 396.0
95.580092777 381.0
95.697071620 361.0
95.814050463 355.0
95.931029306 359.0
96.048008149 381.0
96.164986992 392.0
96.281965835 378.0
96.398944678 360.0
96.515923521 360.0
96.632902364 367.0
96.749881207 351.0
96.866860050 333.0
96.983838893 380.0
97.100817736 354.0
97.217796579 348.0
97.334775422 337.0
97.451754265 392.0
97.568733108 371.0
97.685711951 339.0
97.802690795 347.0
97.919669638 361.0
98.036648481 338.0
98.153627324 373.0
98.270606167 355.0
98.387585010 400.0
98.504563853 352.0
98.621542696 375.0
98.738521539 355.0
98.855500382 353.0
98.972479225 372.0
99.089458068 342.0
99.206436911 386.0
99.323415754 394.0
99.440394597 365.0
99.557373440 362.0
99.674352283 346.0
99.791331126 357.0
99.908309969 371.0
100.025288812 339.0
100.142267655 332.0
100.259246498 319.0
100.376225341 321.0
100.493204184 345.0
100.610183027 360.0
100.727161871 346.0
100.844140714 361.0
100.961119557 319.0
101.078098400 385.0
101.195077243 297.0
101.312056086 359.0
101.429034929 338.0
101.546013772 332.0
101.662992615 376.0
101.779971458 323.0
101.896950301 389.0
102.013929144 344.0
102.130907987 385.0
102.247886830 358.0
102.364865673 338.0
102.481844516 332.0
102.598823359 358.0
102.715802202 330.0
102.832781045 345.0
102.949759888 333.0
103.066738731 389.0
103.183717574 345.0
103.300696417 375.0
103.417675260 332.0
103.534654104 355.0
103.651632947 374.0
103.768611790 325.0
103.885590633 345.0
104.002569476 369.0
104.119548319 325.0
104.236527162 334.0
104.353506005 379.0
104.470484848 386.0
104.587463691 299.0
104.704442534 311.0
104.821421377 415.0
104.938400220 367.0
105.055379063 360.0
105.172357906 348.0
105.289336749 326.0
105.406315592 383.0
105.523294435 338.0
105.640273278 366.0
105.757252121 346.0
105.874230964 309.0
105.991209807 344.0
106.108188650 368.0
106.225167493 383.0
106.342146336 402.0
106.459125180 297.0
106.576104023 376.0
106.693082866 319.0
106.810061709 319.0
106.927040552 333.0
107.044019395 332.0
107.160998238 313.0
107.277977081 298.0
107.394955924 348.0
107.511934767 347.0
107.628913610 341.0
107.745892453 346.0
107.862871296 351.0
107.979850139 344.0
108.096828982 339.0
108.213807825 342.0
108.330786668 333.0
108.447765511 352.0
108.564744354 342.0
108.681723197 376.0
108.798702040 348.0
108.915680883 326.0
109.032659726 335.0
109.149638569 316.0
109.266617413 321.0
109.383596256 359.0
109.500575099 328.0
109.617553942 350.0
109.734532785 376.0
109.851511628 353.0
109.968490471 366.0
110.085469314 353.0
110.202448157 332.0
110.319427000 351.0
110.436405843 352.0
110.553384686 367.0
110.670363529 355.0
110.787342372 355.0
110.904321215 362.0
111.021300058 353.0
111.138278901 347.0
111.255257744 340.0
111.372236587 319.0
111.489215430 324.0
111.606194273 339.0
111.723173116 352.0
111.840151959 303.0
111.957130802 362.0
112.074109645 321.0
112.191088489 334.0
112.308067332 361.0
112.425046175 333.0
112.542025018 355.0
112.659003861 338.0
112.775982704 348.0
112.892961547 348.0
113.009940390 364.0
113.126919233 367.0
113.243898076 345.0
113.360876919 313.0
113.477855762 369.0
113.594834605 334.0
113.711813448 345.0
113.828792291 381.0
113.945771134 354.0
114.062749977 346.0
114.179728820 360.0
114.296707663 346.0
114.413686506 381.0
114.530665349 347.0
114.647644192 355.0
114.764623035 382.0
114.881601878 340.0
114.998580722 357.0
115.115559565 334.0
115.232538408 409.0
115.349517251 359.0
115.466496094 359.0
115.583474937 401.0
115.700453780 355.0
115.817432623 344.0
115.934411466 383.0
116.051390309 355.0
116.168369152 380.0
116.285347995 378.0
116.402326838 351.0
116.519305681 396.0
116.636284524 387.0
116.753263367 409.0
116.870242210 351.0
116.987221053 383.0
117.104199896 407.0
117.221178739 346.0
117.338157582 381.0
117.455136425 358.0
117.572115268 371.0
117.689094111 389.0
117.806072955 366.0
117.923051798 368.0
118.040030641 369.0
118.157009484 359.0
118.273988327 365.0
118.390967170 342.0
118.507946013 351.0
118.624924856 369.0
118.741903699 373.0
118.858882542 351.0
118.975861385 400.0
119.092840228 371.0
119.209819071 337.0
119.326797914 399.0
119.443776757 416.0
119.560755600 373.0
119.677734443 360.0
119.794713286 362.0
119.911692129 332.0
120.028670972 403.0
120.145649815 392.0
120.262628658 374.0
120.379607501 351.0
120.496586344 369.0
120.613565187 406.0
120.730544031 386.0
120.847522874 390.0
120.964501717 400.0
121.081480560 382.0
121.198459403 353.0
121.315438246 351.0
121.432417089 373.0
121.549395932 380.0
121.666374775 350.0
121.783353618 319.0
121.900332461 371.0
122.017311304 338.0
122.134290147 410.0
122.251268990 385.0
122.368247833 360.0
122.485226676 395.0
122.602205519 390.0
122.719184362 379.0
122.836163205 399.0
122.953142048 372.0
123.070120891 348.0
123.187099734 341.0
123.304078577 385.0
123.421057420 389.0
123.538036264 344.0
123.655015107 392.0
123.771993950 366.0
123.888972793 364.0
124.005951636 369.0
124.122930479 366.0
124.239909322 364.0
124.356888165 388.0
124.473867008 394.0
124.590845851 373.0
124.707824694 402.0
124.824803537 389.0
124.941782380 364.0
