4.921489420 179.0
5.038468263 206.0
5.155447106 177.0
5.272425949 193.0
5.389404792 222.0
5.506383635 214.0
5.623362478 229.0
5.740341321 251.0
5.857320164 228.0
5.974299007 268.0
6.091277850 256.0
6.208256693 246.0
6.325235536 265.0
6.442214380 244.0
6.559193223 245.0
6.676172066 262.0
6.793150909 269.0
6.910129752 312.0
7.027108595 271.0
7.144087438 264.0
7.261066281 310.0
7.378045124 257.0
7.495023967 313.0
7.612002810 309.0
7.728981653 323.0
7.845960496 317.0
7.962939339 313.0
8.079918182 317.0
8.196897025 311.0
8.313875868 338.0
8.430854711 338.0
8.547833554 299.0
8.664812397 325.0
8.781791240 351.0
8.898770083 338.0
9.015748926 348.0
9.132727769 380.0
9.249706613 351.0
9.366685456 341.0
9.483664299 345.0
9.600643142 331.0
9.717621985 367.0
9.834600828 372.0
9.951579671 368.0
10.068558514 394.0
10.185537357 365.0
10.302516200 357.0
10.419495043 360.0
10.536473886 332.0
10.653452729 397.0
10.770431572 337.0
10.887410415 380.0
11.004389258 381.0
11.121368101 381.0
11.238346944 400.0
11.355325787 378.0
11.472304630 353.0
11.589283473 385.0
11.706262316 372.0
11.823241159 357.0
11.940220002 371.0
12.057198845 368.0
12.174177689 403.0
12.291156532 376.0
12.408135375 339.0
12.525114218 347.0
12.642093061 352.0
12.759071904 386.0
12.876050747 390.0
12.993029590 376.0
13.110008433 389.0
13.226987276 367.0
13.343966119 352.0
13.460944962 355.0
13.577923805 347.0
13.694902648 369.0
13.811881491 344.0
13.928860334 423.0
14.045839177 390.0
14.162818020 359.0
14.279796863 367.0
14.396775706 339.0
14.513754549 369.0
14.630733392 341.0
14.747712235 346.0
14.864691078 354.0
14.981669922 348.0
15.098648765 366.0
15.215627608 357.0
15.332606451 347.0
15.449585294 368.0
15.566564137 376.0
15.683542980 341.0
15.800521823 366.0
15.917500666 387.0
16.034479509 328.0
16.151458352 314.0
16.268437195 326.0
16.385416038 316.0
16.502394881 318.0
16.619373724 323.0
16.736352567 272.0
16.853331410 312.0
16.970310253 310.0
17.087289096 326.0
17.204267939 293.0
17.321246782 294.0
17.438225625 291.0
17.555204468 271.0
17.672183311 277.0
17.789162155 292.0
17.906140998 262.0
18.023119841 277.0
18.140098684 283.0
18.257077527 276.0
18.374056370 279.0
18.491035213 283.0
18.608014056 298.0
18.724992899 273.0
18.841971742 266.0
18.958950585 283.0
19.075929428 261.0
19.192908271 268.0
19.309887114 231.0
19.426865957 251.0
19.543844800 259.0
19.660823643 213.0
19.777802486 241.0
19.894781329 266.0
20.011760172 256.0
20.128739015 245.0
20.245717858 239.0
20.362696701 266.0
20.479675544 223.0
20.596654387 241.0
20.713633231 225.0
20.830612074 208.0
20.947590917 239.0
21.064569760 216.0
21.181548603 215.0
21.298527446 222.0
21.415506289 228.0
21.532485132 222.0
21.649463975 235.0
21.766442818 227.0
21.883421661 231.0
22.000400504 220.0
22.117379347 191.0
22.234358190 238.0
22.351337033 210.0
22.468315876 203.0
22.585294719 208.0
22.702273562 246.0
22.819252405 183.0
22.936231248 235.0
23.053210091 201.0
23.170188934 228.0
23.287167777 215.0
23.404146620 186.0
23.521125464 179.0
23.638104307 194.0
23.755083150 183.0
23.872061993 213.0
23.989040836 188.0
24.106019679 200.0
24.222998522 188.0
24.339977365 184.0
24.456956208 200.0
24.573935051 190.0
24.690913894 196.0
24.807892737 200.0
24.924871580 184.0
25.041850423 190.0
25.158829266 206.0
25.275808109 165.0
25.392786952 201.0
25.509765795 189.0
25.626744638 184.0
25.743723481 181.0
25.860702324 174.0
25.977681167 209.0
26.094660010 181.0
26.211638853 180.0
26.328617696 169.0
26.445596540 179.0
26.562575383 169.0
26.679554226 193.0
26.796533069 236.0
26.913511912 152.0
27.030490755 148.0
27.147469598 190.0
27.264448441 236.0
27.381427284 197.0
27.498406127 196.0
27.615384970 198.0
27.732363813 193.0
27.849342656 160.0
27.966321499 167.0
28.083300342 184.0
28.200279185 188.0
28.317258028 172.0
28.434236871 206.0
28.551215714 231.0
28.668194557 317.0
28.785173400 326.0
28.902152243 230.0
29.019131086 196.0
29.136109929 203.0
29.253088773 251.0
29.370067616 325.0
29.487046459 380.0
29.604025302 400.0
29.721004145 210.0
29.837982988 174.0
29.954961831 143.0
30.071940674 180.0
30.188919517 169.0
30.305898360 177.0
30.422877203 168.0
30.539856046 186.0
30.656834889 161.0
30.773813732 147.0
30.890792575 160.0
31.007771418 187.0
31.124750261 189.0
31.241729104 169.0
31.358707947 145.0
31.475686790 179.0
31.592665633 194.0
31.709644476 166.0
31.826623319 160.0
31.943602162 135.0
32.060581005 154.0
32.177559849 162.0
32.294538692 156.0
32.411517535 170.0
32.528496378 152.0
32.645475221 161.0
32.762454064 174.0
32.879432907 154.0
32.996411750 156.0
33.113390593 131.0
33.230369436 138.0
33.347348279 143.0
33.464327122 140.0
33.581305965 165.0
33.698284808 191.0
33.815263651 138.0
33.932242494 173.0
34.049221337 172.0
34.166200180 184.0
34.283179023 183.0
34.400157866 172.0
34.517136709 200.0
34.634115552 217.0
34.751094395 200.0
34.868073238 211.0
34.985052082 189.0
35.102030925 201.0
35.219009768 204.0
35.335988611 231.0
35.452967454 230.0
35.569946297 228.0
35.686925140 230.0
35.803903983 272.0
35.920882826 291.0
36.037861669 311.0
36.154840512 342.0
36.271819355 331.0
36.388798198 313.0
36.505777041 287.0
36.622755884 278.0
36.739734727 305.0
36.856713570 318.0
36.973692413 290.0
37.090671256 284.0
37.207650099 314.0
37.324628942 300.0
37.441607785 323.0
37.558586628 335.0
37.675565471 324.0
37.792544315 313.0
37.909523158 355.0
38.026502001 352.0
38.143480844 369.0
38.260459687 381.0
38.377438530 383.0
38.494417373 352.0
38.611396216 361.0
38.728375059 337.0
38.845353902 378.0
38.962332745 351.0
39.079311588 382.0
39.196290431 417.0
39.313269274 447.0
39.430248117 474.0
39.547226960 523.0
39.664205803 471.0
39.781184646 443.0
39.898163489 420.0
40.015142332 429.0
40.132121175 431.0
40.249100018 373.0
40.366078861 449.0
40.483057704 468.0
40.600036547 486.0
40.717015391 496.0
40.833994234 493.0
40.950973077 498.0
41.067951920 505.0
41.184930763 513.0
41.301909606 559.0
41.418888449 545.0
41.535867292 537.0
41.652846135 592.0
41.769824978 770.0
41.886803821 972.0
42.003782664 1088.0
42.120761507 884.0
42.237740350 663.0
42.354719193 601.0
42.471698036 543.0
42.588676879 568.0
42.705655722 553.0
42.822634565 591.0
42.939613408 565.0
43.056592251 607.0
43.173571094 676.0
43.290549937 918.0
43.407528780 1081.0
43.524507624 1169.0
43.641486467 1252.0
43.758465310 944.0
43.875444153 745.0
43.992422996 698.0
44.109401839 594.0
44.226380682 547.0
44.343359525 585.0
44.460338368 546.0
44.577317211 587.0
44.694296054 633.0
44.811274897 714.0
44.928253740 733.0
45.045232583 798.0
45.162211426 675.0
45.279190269 587.0
45.396169112 540.0
45.513147955 572.0
45.630126798 545.0
45.747105641 530.0
45.864084484 511.0
45.981063327 544.0
46.098042170 456.0
46.215021013 476.0
46.331999856 442.0
46.448978700 496.0
46.565957543 511.0
46.682936386 479.0
46.799915229 503.0
46.916894072 464.0
47.033872915 558.0
47.150851758 497.0
47.267830601 577.0
47.384809444 527.0
47.501788287 612.0
47.618767130 680.0
47.735745973 667.0
47.852724816 513.0
47.969703659 551.0
48.086682502 554.0
48.203661345 559.0
48.320640188 564.0
48.437619031 671.0
48.554597874 808.0
48.671576717 915.0
48.788555560 938.0
48.905534403 972.0
49.022513246 949.0
49.139492089 719.0
49.256470933 711.0
49.373449776 567.0
49.490428619 552.0
49.607407462 564.0
49.724386305 525.0
49.841365148 516.0
49.958343991 537.0
50.075322834 543.0
50.192301677 620.0
50.309280520 635.0
50.426259363 675.0
50.543238206 838.0
50.660217049 963.0
50.777195892 909.0
50.894174735 907.0
51.011153578 888.0
51.128132421 819.0
51.245111264 714.0
51.362090107 623.0
51.479068950 558.0
51.596047793 549.0
51.713026636 546.0
51.830005479 515.0
51.946984322 524.0
52.063963165 516.0
52.180942009 496.0
52.297920852 573.0
52.414899695 515.0
52.531878538 491.0
52.648857381 488.0
52.765836224 471.0
52.882815067 475.0
52.999793910 498.0
53.116772753 474.0
53.233751596 499.0
53.350730439 471.0
53.467709282 498.0
53.584688125 482.0
53.701666968 486.0
53.818645811 479.0
53.935624654 483.0
54.052603497 517.0
54.169582340 488.0
54.286561183 484.0
54.403540026 593.0
54.520518869 553.0
54.637497712 523.0
54.754476555 489.0
54.871455398 537.0
54.988434242 474.0
55.105413085 538.0
55.222391928 512.0
55.339370771 516.0
55.456349614 486.0
55.573328457 483.0
55.690307300 508.0
55.807286143 516.0
55.924264986 501.0
56.041243829 461.0
56.158222672 499.0
56.275201515 502.0
56.392180358 471.0
56.509159201 484.0
56.626138044 479.0
56.743116887 534.0
56.860095730 475.0
56.977074573 481.0
57.094053416 434.0
57.211032259 506.0
57.328011102 474.0
57.444989945 561.0
57.561968788 541.0
57.678947631 540.0
57.795926475 496.0
57.912905318 460.0
58.029884161 483.0
58.146863004 481.0
58.263841847 488.0
58.380820690 503.0
58.497799533 492.0
58.614778376 538.0
58.731757219 481.0
58.848736062 522.0
58.965714905 482.0
59.082693748 483.0
59.199672591 462.0
59.316651434 519.0
59.433630277 501.0
59.550609120 490.0
59.667587963 501.0
59.784566806 472.0
59.901545649 468.0
60.018524492 468.0
60.135503335 462.0
60.252482178 539.0
60.369461021 537.0
60.486439864 472.0
60.603418707 496.0
60.720397551 537.0
60.837376394 554.0
60.954355237 504.0
61.071334080 587.0
61.188312923 563.0
61.305291766 508.0
61.422270609 509.0
61.539249452 530.0
61.656228295 508.0
61.773207138 475.0
61.890185981 522.0
62.007164824 465.0
62.124143667 461.0
62.241122510 431.0
62.358101353 417.0
62.475080196 476.0
62.592059039 508.0
62.709037882 478.0
62.826016725 486.0
62.942995568 464.0
63.059974411 549.0
63.176953254 474.0
63.293932097 488.0
63.410910940 472.0
63.527889784 426.0
63.644868627 508.0
63.761847470 498.0
63.878826313 462.0
63.995805156 484.0
64.112783999 454.0
64.229762842 478.0
64.346741685 462.0
64.463720528 495.0
64.580699371 434.0
64.697678214 517.0
64.814657057 515.0
64.931635900 517.0
65.048614743 513.0
65.165593586 475.0
65.282572429 491.0
65.399551272 502.0
65.516530115 520.0
65.633508958 589.0
65.750487801 529.0
65.867466644 518.0
65.984445487 509.0
66.101424330 489.0
66.218403173 479.0
66.335382016 502.0
66.452360860 527.0
66.569339703 504.0
66.686318546 458.0
66.803297389 498.0
66.920276232 529.0
67.037255075 538.0
67.154233918 529.0
67.271212761 468.0
67.388191604 526.0
67.505170447 501.0
67.622149290 486.0
67.739128133 508.0
67.856106976 440.0
67.973085819 477.0
68.090064662 495.0
68.207043505 420.0
68.324022348 420.0
68.441001191 506.0
68.557980034 460.0
68.674958877 474.0
68.791937720 470.0
68.908916563 456.0
69.025895406 485.0
69.142874249 502.0
69.259853093 519.0
69.376831936 482.0
69.493810779 485.0
69.610789622 496.0
69.727768465 503.0
69.844747308 467.0
69.961726151 471.0
70.078704994 485.0
70.195683837 525.0
70.312662680 536.0
70.429641523 536.0
70.546620366 581.0
70.663599209 549.0
70.780578052 508.0
70.897556895 519.0
71.014535738 512.0
71.131514581 551.0
71.248493424 541.0
71.365472267 558.0
71.482451110 561.0
71.599429953 593.0
71.716408796 608.0
71.833387639 652.0
71.950366482 752.0
72.067345325 985.0
72.184324169 1208.0
72.301303012 1864.0
72.418281855 2557.0
72.535260698 2947.0
72.652239541 2706.0
72.769218384 2107.0
72.886197227 1412.0
73.003176070 1026.0
73.120154913 807.0
73.237133756 730.0
73.354112599 646.0
73.471091442 579.0
73.588070285 550.0
73.705049128 536.0
73.822027971 520.0
73.939006814 571.0
74.055985657 505.0
74.172964500 518.0
74.289943343 493.0
74.406922186 518.0
74.523901029 447.0
74.640879872 483.0
74.757858715 509.0
74.874837558 522.0
74.991816402 453.0
75.108795245 486.0
75.225774088 504.0
75.342752931 485.0
75.459731774 486.0
75.576710617 509.0
75.693689460 512.0
75.810668303 451.0
75.927647146 483.0
76.044625989 491.0
76.161604832 474.0
76.278583675 488.0
76.395562518 504.0
76.512541361 484.0
76.629520204 453.0
76.746499047 483.0
76.863477890 482.0
76.980456733 460.0
77.097435576 465.0
77.214414419 505.0
77.331393262 450.0
77.448372105 463.0
77.565350948 463.0
77.682329791 467.0
77.799308635 471.0
77.916287478 501.0
78.033266321 437.0
78.150245164 447.0
78.267224007 434.0
78.384202850 447.0
78.501181693 430.0
78.618160536 454.0
78.735139379 474.0
78.852118222 463.0
78.969097065 475.0
79.086075908 426.0
79.203054751 424.0
79.320033594 449.0
79.437012437 468.0
79.553991280 457.0
79.670970123 429.0
79.787948966 477.0
79.904927809 438.0
80.021906652 457.0
80.138885495 427.0
80.255864338 458.0
80.372843181 449.0
80.489822024 445.0
80.606800867 430.0
80.723779711 449.0
80.840758554 458.0
80.957737397 435.0
81.074716240 436.0
81.191695083 498.0
81.308673926 472.0
81.425652769 437.0
81.542631612 479.0
81.659610455 488.0
81.776589298 458.0
81.893568141 476.0
82.010546984 445.0
82.127525827 513.0
82.244504670 485.0
82.361483513 503.0
82.478462356 490.0
82.595441199 486.0
82.712420042 530.0
82.829398885 483.0
82.946377728 512.0
83.063356571 435.0
83.180335414 474.0
83.297314257 460.0
83.414293100 447.0
83.531271944 420.0
83.648250787 462.0
83.765229630 476.0
83.882208473 440.0
83.999187316 462.0
84.116166159 463.0
84.233145002 472.0
84.350123845 460.0
84.467102688 454.0
84.584081531 440.0
84.701060374 477.0
84.818039217 414.0
84.935018060 468.0
85.051996903 454.0
85.168975746 447.0
85.285954589 427.0
85.402933432 455.0
85.519912275 427.0
85.636891118 430.0
85.753869961 407.0
85.870848804 435.0
85.987827647 467.0
86.104806490 433.0
86.221785333 436.0
86.338764176 477.0
86.455743020 465.0
86.572721863 468.0
86.689700706 489.0
86.806679549 422.0
86.923658392 474.0
87.040637235 496.0
87.157616078 449.0
87.274594921 524.0
87.391573764 538.0
87.508552607 565.0
87.625531450 633.0
87.742510293 622.0
87.859489136 743.0
87.976467979 773.0
88.093446822 780.0
88.210425665 856.0
88.327404508 752.0
88.444383351 643.0
88.561362194 601.0
88.678341037 568.0
88.795319880 482.0
88.912298723 518.0
89.029277566 482.0
89.146256409 453.0
89.263235253 469.0
89.380214096 443.0
89.497192939 490.0
89.614171782 469.0
89.731150625 427.0
89.848129468 448.0
89.965108311 401.0
90.082087154 451.0
90.199065997 435.0
90.316044840 453.0
90.433023683 438.0
90.550002526 476.0
90.666981369 467.0
90.783960212 440.0
90.900939055 441.0
91.017917898 483.0
91.134896741 462.0
91.251875584 451.0
91.368854427 447.0
91.485833270 476.0
91.602812113 451.0
91.719790956 453.0
91.836769799 474.0
91.953748642 544.0
92.070727485 493.0
92.187706329 442.0
92.304685172 453.0
92.421664015 501.0
92.538642858 460.0
92.655621701 474.0
92.772600544 516.0
92.889579387 427.0
93.006558230 477.0
93.123537073 426.0
93.240515916 429.0
93.357494759 420.0
93.474473602 486.0
93.591452445 470.0
93.708431288 451.0
93.825410131 431.0
93.942388974 407.0
94.059367817 437.0
94.176346660 450.0
94.293325503 388.0
94.410304346 422.0
94.527283189 400.0
94.644262032 405.0
94.761240875 456.0
94.878219718 498.0
94.995198562 450.0
95.112177405 434.0
95.229156248 504.0
95.346135091 477.0
95.463113934 477.0
95.580092777 429.0
95.697071620 453.0
95.814050463 415.0
95.931029306 426.0
96.048008149 460.0
96.164986992 450.0
96.281965835 456.0
96.398944678 458.0
96.515923521 481.0
96.632902364 426.0
96.749881207 436.0
96.866860050 457.0
96.983838893 431.0
97.100817736 517.0
97.217796579 477.0
97.334775422 428.0
97.451754265 453.0
97.568733108 438.0
97.685711951 444.0
97.802690795 455.0
97.919669638 423.0
98.036648481 467.0
98.153627324 457.0
98.270606167 493.0
98.387585010 438.0
98.504563853 456.0
98.621542696 435.0
98.738521539 420.0
98.855500382 433.0
98.972479225 427.0
99.089458068 450.0
99.206436911 497.0
99.323415754 510.0
99.440394597 462.0
99.557373440 455.0
99.674352283 457.0
99.791331126 485.0
99.908309969 458.0
100.025288812 415.0
100.142267655 409.0
100.259246498 444.0
100.376225341 430.0
100.493204184 407.0
100.610183027 479.0
100.727161871 462.0
100.844140714 455.0
100.961119557 464.0
101.078098400 444.0
101.195077243 428.0
101.312056086 437.0
101.429034929 435.0
101.546013772 447.0
101.662992615 454.0
101.779971458 461.0
101.896950301 478.0
102.013929144 409.0
102.130907987 438.0
102.247886830 464.0
102.364865673 437.0
102.481844516 467.0
102.598823359 505.0
102.715802202 413.0
102.832781045 403.0
102.949759888 415.0
103.066738731 427.0
103.183717574 438.0
103.300696417 378.0
103.417675260 421.0
103.534654104 436.0
103.651632947 410.0
103.768611790 415.0
103.885590633 406.0
104.002569476 486.0
104.119548319 423.0
104.236527162 441.0
104.353506005 438.0
104.470484848 430.0
104.587463691 497.0
104.704442534 495.0
104.821421377 449.0
104.938400220 399.0
105.055379063 389.0
105.172357906 453.0
105.289336749 435.0
105.406315592 431.0
105.523294435 413.0
105.640273278 406.0
105.757252121 436.0
105.874230964 471.0
105.991209807 434.0
106.108188650 431.0
106.225167493 470.0
106.342146336 447.0
106.459125180 435.0
106.576104023 465.0
106.693082866 472.0
106.810061709 422.0
106.927040552 451.0
107.044019395 424.0
107.160998238 436.0
107.277977081 427.0
107.394955924 470.0
107.511934767 422.0
107.628913610 433.0
107.745892453 380.0
107.862871296 416.0
107.979850139 390.0
108.096828982 455.0
108.213807825 456.0
108.330786668 430.0
108.447765511 429.0
108.564744354 441.0
108.681723197 412.0
108.798702040 440.0
108.915680883 433.0
109.032659726 431.0
109.149638569 437.0
109.266617413 394.0
109.383596256 416.0
109.500575099 429.0
109.617553942 423.0
109.734532785 462.0
109.851511628 464.0
109.968490471 433.0
110.085469314 448.0
110.202448157 406.0
110.319427000 428.0
110.436405843 437.0
110.553384686 463.0
110.670363529 470.0
110.787342372 419.0
110.904321215 437.0
111.021300058 423.0
111.138278901 457.0
111.255257744 434.0
111.372236587 424.0
111.489215430 442.0
111.606194273 448.0
111.723173116 447.0
111.840151959 423.0
111.957130802 374.0
112.074109645 423.0
112.191088489 430.0
112.308067332 461.0
112.425046175 428.0
112.542025018 430.0
112.659003861 395.0
112.775982704 412.0
112.892961547 447.0
113.009940390 465.0
113.126919233 396.0
113.243898076 443.0
113.360876919 436.0
113.477855762 462.0
113.594834605 415.0
113.711813448 402.0
113.828792291 434.0
113.945771134 399.0
114.062749977 405.0
114.179728820 415.0
114.296707663 415.0
114.413686506 475.0
114.530665349 463.0
114.647644192 465.0
114.764623035 420.0
114.881601878 440.0
114.998580722 450.0
115.115559565 456.0
115.232538408 429.0
115.349517251 419.0
115.466496094 422.0
115.583474937 412.0
115.700453780 420.0
115.817432623 456.0
115.934411466 419.0
116.051390309 421.0
116.168369152 472.0
116.285347995 412.0
116.402326838 447.0
116.519305681 428.0
116.636284524 396.0
116.753263367 440.0
116.870242210 489.0
116.987221053 468.0
117.104199896 449.0
117.221178739 465.0
117.338157582 417.0
117.455136425 428.0
117.572115268 436.0
117.689094111 469.0
117.806072955 440.0
117.923051798 433.0
118.040030641 445.0
118.157009484 415.0
118.273988327 448.0
118.390967170 437.0
118.507946013 416.0
118.624924856 422.0
118.741903699 442.0
118.858882542 451.0
118.975861385 437.0
119.092840228 450.0
119.209819071 437.0
119.326797914 413.0
119.443776757 475.0
119.560755600 449.0
119.677734443 475.0
119.794713286 450.0
119.911692129 444.0
120.028670972 481.0
120.145649815 503.0
120.262628658 447.0
120.379607501 440.0
120.496586344 451.0
120.613565187 397.0
120.730544031 463.0
120.847522874 451.0
120.964501717 448.0
121.081480560 431.0
121.198459403 467.0
121.315438246 434.0
121.432417089 458.0
121.549395932 430.0
121.666374775 454.0
121.783353618 419.0
121.900332461 420.0
122.017311304 405.0
122.134290147 454.0
122.251268990 467.0
122.368247833 479.0
122.485226676 468.0
122.602205519 438.0
122.719184362 433.0
122.836163205 461.0
122.953142048 449.0
123.070120891 451.0
123.187099734 395.0
123.304078577 483.0
123.421057420 471.0
123.538036264 453.0
123.655015107 455.0
123.771993950 463.0
123.888972793 434.0
124.005951636 449.0
124.122930479 438.0
124.239909322 399.0
124.356888165 479.0
124.473867008 435.0
124.590845851 470.0
124.707824694 373.0
124.824803537 415.0
124.941782380 424.0
