4.921489420 203.0
5.038468263 203.0
5.155447106 222.0
5.272425949 191.0
5.389404792 191.0
5.506383635 218.0
5.623362478 213.0
5.740341321 254.0
5.857320164 255.0
5.974299007 218.0
6.091277850 262.0
6.208256693 251.0
6.325235536 265.0
6.442214380 232.0
6.559193223 272.0
6.676172066 294.0
6.793150909 248.0
6.910129752 271.0
7.027108595 286.0
7.144087438 279.0
7.261066281 309.0
7.378045124 290.0
7.495023967 304.0
7.612002810 286.0
7.728981653 289.0
7.845960496 310.0
7.962939339 293.0
8.079918182 294.0
8.196897025 344.0
8.313875868 314.0
8.430854711 284.0
8.547833554 330.0
8.664812397 348.0
8.781791240 325.0
8.898770083 324.0
9.015748926 339.0
9.132727769 324.0
9.249706613 333.0
9.366685456 360.0
9.483664299 330.0
9.600643142 357.0
9.717621985 358.0
9.834600828 328.0
9.951579671 372.0
10.068558514 360.0
10.185537357 333.0
10.302516200 326.0
10.419495043 390.0
10.536473886 386.0
10.653452729 369.0
10.770431572 380.0
10.887410415 366.0
11.004389258 397.0
11.121368101 366.0
11.238346944 359.0
11.355325787 387.0
11.472304630 386.0
11.589283473 355.0
11.706262316 371.0
11.823241159 330.0
11.940220002 351.0
12.057198845 379.0
12.174177689 357.0
12.291156532 376.0
12.408135375 367.0
12.525114218 372.0
12.642093061 380.0
12.759071904 379.0
12.876050747 357.0
12.993029590 394.0
13.110008433 351.0
13.226987276 381.0
13.343966119 369.0
13.460944962 371.0
13.577923805 386.0
13.694902648 364.0
13.811881491 396.0
13.928860334 374.0
14.045839177 382.0
14.162818020 392.0
14.279796863 355.0
14.396775706 371.0
14.513754549 407.0
14.630733392 361.0
14.747712235 371.0
14.864691078 354.0
14.981669922 358.0
15.098648765 340.0
15.215627608 360.0
15.332606451 380.0
15.449585294 353.0
15.566564137 360.0
15.683542980 311.0
15.800521823 319.0
15.917500666 361.0
16.034479509 360.0
16.151458352 344.0
16.268437195 346.0
16.385416038 347.0
16.502394881 361.0
16.619373724 335.0
16.736352567 346.0
16.853331410 369.0
16.970310253 332.0
17.087289096 341.0
17.204267939 320.0
17.321246782 298.0
17.438225625 300.0
17.555204468 296.0
17.672183311 334.0
17.789162155 293.0
17.906140998 317.0
18.023119841 286.0
18.140098684 293.0
18.257077527 300.0
18.374056370 316.0
18.491035213 311.0
18.608014056 304.0
18.724992899 292.0
18.841971742 306.0
18.958950585 306.0
19.075929428 310.0
19.192908271 321.0
19.309887114 298.0
19.426865957 265.0
19.543844800 261.0
19.660823643 263.0
19.777802486 270.0
19.894781329 299.0
20.011760172 280.0
20.128739015 266.0
20.245717858 302.0
20.362696701 284.0
20.479675544 244.0
20.596654387 284.0
20.713633231 238.0
20.830612074 264.0
20.947590917 249.0
21.064569760 249.0
21.181548603 239.0
21.298527446 269.0
21.415506289 228.0
21.532485132 261.0
21.649463975 276.0
21.766442818 244.0
21.883421661 262.0
22.000400504 246.0
22.117379347 225.0
22.234358190 239.0
22.351337033 222.0
22.468315876 201.0
22.585294719 245.0
22.702273562 195.0
22.819252405 236.0
22.936231248 223.0
23.053210091 209.0
23.170188934 225.0
23.287167777 223.0
23.404146620 206.0
23.521125464 188.0
23.638104307 223.0
23.755083150 246.0
23.872061993 191.0
23.989040836 211.0
24.106019679 218.0
24.222998522 196.0
24.339977365 200.0
24.456956208 195.0
24.573935051 221.0
24.690913894 184.0
24.807892737 223.0
24.924871580 216.0
25.041850423 213.0
25.158829266 200.0
25.275808109 215.0
25.392786952 200.0
25.509765795 218.0
25.626744638 210.0
25.743723481 184.0
25.860702324 190.0
25.977681167 198.0
26.094660010 177.0
26.211638853 207.0
26.328617696 217.0
26.445596540 188.0
26.562575383 173.0
26.679554226 206.0
26.796533069 198.0
26.913511912 204.0
27.030490755 194.0
27.147469598 163.0
27.264448441 187.0
27.381427284 182.0
27.498406127 207.0
27.615384970 179.0
27.732363813 203.0
27.849342656 177.0
27.966321499 206.0
28.083300342 183.0
28.200279185 208.0
28.317258028 200.0
28.434236871 202.0
28.551215714 209.0
28.668194557 331.0
28.785173400 245.0
28.902152243 202.0
29.019131086 182.0
29.136109929 176.0
29.253088773 187.0
29.370067616 327.0
29.487046459 395.0
29.604025302 232.0
29.721004145 215.0
29.837982988 177.0
29.954961831 181.0
30.071940674 182.0
30.188919517 170.0
30.305898360 174.0
30.422877203 187.0
30.539856046 183.0
30.656834889 162.0
30.773813732 163.0
30.890792575 211.0
31.007771418 208.0
31.124750261 204.0
31.241729104 172.0
31.358707947 177.0
31.475686790 208.0
31.592665633 180.0
31.709644476 208.0
31.826623319 207.0
31.943602162 193.0
32.060581005 216.0
32.177559849 193.0
32.294538692 214.0
32.411517535 200.0
32.528496378 198.0
32.645475221 216.0
32.762454064 206.0
32.879432907 195.0
32.996411750 228.0
33.113390593 242.0
33.230369436 215.0
33.347348279 239.0
33.464327122 225.0
33.581305965 241.0
33.698284808 224.0
33.815263651 232.0
33.932242494 220.0
34.049221337 259.0
34.166200180 289.0
34.283179023 251.0
34.400157866 261.0
34.517136709 277.0
34.634115552 299.0
34.751094395 245.0
34.868073238 265.0
34.985052082 317.0
35.102030925 255.0
35.219009768 292.0
35.335988611 294.0
35.452967454 289.0
35.569946297 307.0
35.686925140 299.0
35.803903983 318.0
35.920882826 318.0
36.037861669 415.0
36.154840512 388.0
36.271819355 333.0
36.388798198 346.0
36.505777041 345.0
36.622755884 328.0
36.739734727 387.0
36.856713570 364.0
36.973692413 321.0
37.090671256 335.0
37.207650099 347.0
37.324628942 327.0
37.441607785 331.0
37.558586628 348.0
37.675565471 341.0
37.792544315 357.0
37.909523158 359.0
38.026502001 364.0
38.143480844 353.0
38.260459687 376.0
38.377438530 352.0
38.494417373 350.0
38.611396216 357.0
38.728375059 339.0
38.845353902 337.0
38.962332745 350.0
39.079311588 390.0
39.196290431 381.0
39.313269274 368.0
39.430248117 427.0
39.547226960 401.0
39.664205803 374.0
39.781184646 337.0
39.898163489 348.0
40.015142332 401.0
40.132121175 355.0
40.249100018 314.0
40.366078861 374.0
40.483057704 406.0
40.600036547 372.0
40.717015391 380.0
40.833994234 348.0
40.950973077 378.0
41.067951920 396.0
41.184930763 378.0
41.301909606 393.0
41.418888449 387.0
41.535867292 378.0
41.652846135 447.0
41.769824978 501.0
41.886803821 661.0
42.003782664 710.0
42.120761507 578.0
42.237740350 516.0
42.354719193 396.0
42.471698036 400.0
42.588676879 400.0
42.705655722 369.0
42.822634565 454.0
42.939613408 412.0
43.056592251 471.0
43.173571094 551.0
43.290549937 627.0
43.407528780 777.0
43.524507624 831.0
43.641486467 763.0
43.758465310 625.0
43.875444153 523.0
43.992422996 448.0
44.109401839 420.0
44.226380682 405.0
44.343359525 447.0
44.460338368 471.0
44.577317211 444.0
44.694296054 546.0
44.811274897 565.0
44.928253740 543.0
45.045232583 421.0
45.162211426 429.0
45.279190269 331.0
45.396169112 405.0
45.513147955 361.0
45.630126798 352.0
45.747105641 347.0
45.864084484 353.0
45.981063327 341.0
46.098042170 354.0
46.215021013 347.0
46.331999856 346.0
46.448978700 340.0
46.565957543 358.0
46.682936386 378.0
46.799915229 382.0
46.916894072 366.0
47.033872915 354.0
47.150851758 390.0
47.267830601 388.0
47.384809444 407.0
47.501788287 460.0
47.618767130 501.0
47.735745973 440.0
47.852724816 354.0
47.969703659 330.0
48.086682502 403.0
48.203661345 371.0
48.320640188 392.0
48.437619031 527.0
48.554597874 625.0
48.671576717 632.0
48.788555560 608.0
48.905534403 667.0
49.022513246 657.0
49.139492089 575.0
49.256470933 453.0
49.373449776 467.0
49.490428619 412.0
49.607407462 355.0
49.724386305 361.0
49.841365148 348.0
49.958343991 393.0
50.075322834 421.0
50.192301677 414.0
50.309280520 465.0
50.426259363 545.0
50.543238206 572.0
50.660217049 634.0
50.777195892 557.0
50.894174735 669.0
51.011153578 604.0
51.128132421 537.0
51.245111264 453.0
51.362090107 444.0
51.479068950 373.0
51.596047793 341.0
51.713026636 346.0
51.830005479 367.0
51.946984322 380.0
52.063963165 335.0
52.180942009 357.0
52.297920852 380.0
52.414899695 345.0
52.531878538 357.0
52.648857381 316.0
52.765836224 341.0
52.882815067 358.0
52.999793910 325.0
53.116772753 342.0
53.233751596 327.0
53.350730439 347.0
53.467709282 328.0
53.584688125 364.0
53.701666968 338.0
53.818645811 327.0
53.935624654 353.0
54.052603497 345.0
54.169582340 374.0
54.286561183 415.0
54.403540026 375.0
54.520518869 393.0
54.637497712 406.0
54.754476555 352.0
54.871455398 346.0
54.988434242 369.0
55.105413085 371.0
55.222391928 348.0
55.339370771 327.0
55.456349614 331.0
55.573328457 355.0
55.690307300 331.0
55.807286143 359.0
55.924264986 326.0
56.041243829 338.0
56.158222672 326.0
56.275201515 330.0
56.392180358 335.0
56.509159201 367.0
56.626138044 393.0
56.743116887 357.0
56.860095730 366.0
56.977074573 355.0
57.094053416 352.0
57.211032259 342.0
57.328011102 376.0
57.444989945 477.0
57.561968788 427.0
57.678947631 367.0
57.795926475 342.0
57.912905318 346.0
58.029884161 333.0
58.146863004 346.0
58.263841847 324.0
58.380820690 371.0
58.497799533 333.0
58.614778376 365.0
58.731757219 320.0
58.848736062 351.0
58.965714905 347.0
59.082693748 379.0
59.199672591 348.0
59.316651434 357.0
59.433630277 341.0
59.550609120 353.0
59.667587963 362.0
59.784566806 341.0
59.901545649 337.0
60.018524492 348.0
60.135503335 338.0
60.252482178 380.0
60.369461021 410.0
60.486439864 372.0
60.603418707 393.0
60.720397551 407.0
60.837376394 399.0
60.954355237 365.0
61.071334080 414.0
61.188312923 333.0
61.305291766 392.0
61.422270609 368.0
61.539249452 379.0
61.656228295 409.0
61.773207138 378.0
61.890185981 369.0
62.007164824 325.0
62.124143667 342.0
62.241122510 353.0
62.358101353 339.0
62.475080196 304.0
62.592059039 350.0
62.709037882 337.0
62.826016725 376.0
62.942995568 350.0
63.059974411 360.0
63.176953254 383.0
63.293932097 382.0
63.410910940 368.0
63.527889784 330.0
63.644868627 367.0
63.761847470 345.0
63.878826313 339.0
63.995805156 344.0
64.112783999 375.0
64.229762842 337.0
64.346741685 390.0
64.463720528 379.0
64.580699371 399.0
64.697678214 402.0
64.814657057 420.0
64.931635900 429.0
65.048614743 434.0
65.165593586 373.0
65.282572429 383.0
65.399551272 369.0
65.516530115 388.0
65.633508958 396.0
65.750487801 433.0
65.867466644 385.0
65.984445487 402.0
66.101424330 358.0
66.218403173 366.0
66.335382016 374.0
66.452360860 412.0
66.569339703 408.0
66.686318546 352.0
66.803297389 380.0
66.920276232 393.0
67.037255075 371.0
67.154233918 380.0
67.271212761 390.0
67.388191604 346.0
67.505170447 368.0
67.622149290 385.0
67.739128133 365.0
67.856106976 340.0
67.973085819 355.0
68.090064662 340.0
68.207043505 330.0
68.324022348 366.0
68.441001191 352.0
68.557980034 344.0
68.674958877 361.0
68.791937720 351.0
68.908916563 386.0
69.025895406 366.0
69.142874249 360.0
69.259853093 375.0
69.376831936 389.0
69.493810779 372.0
69.610789622 382.0
69.727768465 365.0
69.844747308 332.0
69.961726151 392.0
70.078704994 369.0
70.195683837 341.0
70.312662680 410.0
70.429641523 376.0
70.546620366 409.0
70.663599209 387.0
70.780578052 361.0
70.897556895 364.0
71.014535738 407.0
71.131514581 376.0
71.248493424 386.0
71.365472267 422.0
71.482451110 422.0
71.599429953 444.0
71.716408796 462.0
71.833387639 515.0
71.950366482 513.0
72.067345325 697.0
72.184324169 957.0
72.301303012 1366.0
72.418281855 1995.0
72.535260698 2341.0
72.652239541 2023.0
72.769218384 1627.0
72.886197227 1108.0
73.003176070 779.0
73.120154913 605.0
73.237133756 540.0
73.354112599 483.0
73.471091442 440.0
73.588070285 389.0
73.705049128 397.0
73.822027971 403.0
73.939006814 393.0
74.055985657 351.0
74.172964500 368.0
74.289943343 375.0
74.406922186 375.0
74.523901029 347.0
74.640879872 358.0
74.757858715 338.0
74.874837558 396.0
74.991816402 365.0
75.108795245 374.0
75.225774088 358.0
75.342752931 378.0
75.459731774 334.0
75.576710617 388.0
75.693689460 401.0
75.810668303 341.0
75.927647146 355.0
76.044625989 365.0
76.161604832 379.0
76.278583675 337.0
76.395562518 352.0
76.512541361 292.0
76.629520204 380.0
76.746499047 340.0
76.863477890 314.0
76.980456733 369.0
77.097435576 357.0
77.214414419 393.0
77.331393262 368.0
77.448372105 367.0
77.565350948 369.0
77.682329791 351.0
77.799308635 341.0
77.916287478 344.0
78.033266321 317.0
78.150245164 348.0
78.267224007 353.0
78.384202850 331.0
78.501181693 323.0
78.618160536 320.0
78.735139379 327.0
78.852118222 332.0
78.969097065 282.0
79.086075908 310.0
79.203054751 366.0
79.320033594 339.0
79.437012437 333.0
79.553991280 318.0
79.670970123 339.0
79.787948966 321.0
79.904927809 318.0
80.021906652 364.0
80.138885495 317.0
80.255864338 361.0
80.372843181 340.0
80.489822024 355.0
80.606800867 303.0
80.723779711 300.0
80.840758554 318.0
80.957737397 365.0
81.074716240 326.0
81.191695083 331.0
81.308673926 337.0
81.425652769 350.0
81.542631612 342.0
81.659610455 332.0
81.776589298 348.0
81.893568141 403.0
82.010546984 350.0
82.127525827 367.0
82.244504670 383.0
82.361483513 376.0
82.478462356 357.0
82.595441199 331.0
82.712420042 360.0
82.829398885 348.0
82.946377728 320.0
83.063356571 332.0
83.180335414 339.0
83.297314257 332.0
83.414293100 305.0
83.531271944 338.0
83.648250787 310.0
83.765229630 342.0
83.882208473 380.0
83.999187316 344.0
84.116166159 373.0
84.233145002 323.0
84.350123845 324.0
84.467102688 317.0
84.584081531 330.0
84.701060374 337.0
84.818039217 323.0
84.935018060 344.0
85.051996903 327.0
85.168975746 341.0
85.285954589 291.0
85.402933432 317.0
85.519912275 327.0
85.636891118 313.0
85.753869961 312.0
85.870848804 291.0
85.987827647 292.0
86.104806490 333.0
86.221785333 321.0
86.338764176 334.0
86.455743020 325.0
86.572721863 333.0
86.689700706 305.0
86.806679549 326.0
86.923658392 368.0
87.040637235 354.0
87.157616078 335.0
87.274594921 368.0
87.391573764 375.0
87.508552607 339.0
87.625531450 416.0
87.742510293 482.0
87.859489136 489.0
87.976467979 526.0
88.093446822 523.0
88.210425665 561.0
88.327404508 499.0
88.444383351 430.0
88.561362194 415.0
88.678341037 389.0
88.795319880 382.0
88.912298723 312.0
89.029277566 348.0
89.146256409 348.0
89.263235253 345.0
89.380214096 337.0
89.497192939 284.0
89.614171782 307.0
89.731150625 298.0
89.848129468 316.0
89.965108311 298.0
90.082087154 332.0
90.199065997 307.0
90.316044840 282.0
90.433023683 310.0
90.550002526 254.0
90.666981369 291.0
90.783960212 310.0
90.900939055 293.0
91.017917898 287.0
91.134896741 300.0
91.251875584 303.0
91.368854427 304.0
91.485833270 320.0
91.602812113 319.0
91.719790956 358.0
91.836769799 332.0
91.953748642 300.0
92.070727485 338.0
92.187706329 320.0
92.304685172 303.0
92.421664015 303.0
92.538642858 305.0
92.655621701 324.0
92.772600544 350.0
92.889579387 312.0
93.006558230 306.0
93.123537073 311.0
93.240515916 312.0
93.357494759 316.0
93.474473602 284.0
93.591452445 275.0
93.708431288 283.0
93.825410131 279.0
93.942388974 296.0
94.059367817 310.0
94.176346660 270.0
94.293325503 333.0
94.410304346 259.0
94.527283189 311.0
94.644262032 305.0
94.761240875 284.0
94.878219718 317.0
94.995198562 323.0
95.112177405 321.0
95.229156248 332.0
95.346135091 331.0
95.463113934 346.0
95.580092777 304.0
95.697071620 309.0
95.814050463 317.0
95.931029306 271.0
96.048008149 317.0
96.164986992 327.0
96.281965835 313.0
96.398944678 302.0
96.515923521 320.0
96.632902364 310.0
96.749881207 302.0
96.866860050 297.0
96.983838893 307.0
97.100817736 278.0
97.217796579 318.0
97.334775422 282.0
97.451754265 292.0
97.568733108 331.0
97.685711951 313.0
97.802690795 302.0
97.919669638 306.0
98.036648481 304.0
98.153627324 291.0
98.270606167 282.0
98.387585010 313.0
98.504563853 273.0
98.621542696 300.0
98.738521539 321.0
98.855500382 341.0
98.972479225 292.0
99.089458068 290.0
99.206436911 325.0
99.323415754 325.0
99.440394597 318.0
99.557373440 305.0
99.674352283 285.0
99.791331126 257.0
99.908309969 317.0
100.025288812 269.0
100.142267655 317.0
100.259246498 318.0
100.376225341 268.0
100.493204184 279.0
100.610183027 284.0
100.727161871 292.0
100.844140714 257.0
100.961119557 325.0
101.078098400 285.0
101.195077243 323.0
101.312056086 268.0
101.429034929 312.0
101.546013772 305.0
101.662992615 327.0
101.779971458 333.0
101.896950301 300.0
102.013929144 335.0
102.130907987 289.0
102.247886830 314.0
102.364865673 276.0
102.481844516 324.0
102.598823359 313.0
102.715802202 290.0
102.832781045 285.0
102.949759888 314.0
103.066738731 323.0
103.183717574 275.0
103.300696417 324.0
103.417675260 296.0
103.534654104 312.0
103.651632947 297.0
103.768611790 290.0
103.885590633 290.0
104.002569476 330.0
104.119548319 271.0
104.236527162 314.0
104.353506005 324.0
104.470484848 302.0
104.587463691 310.0
104.704442534 303.0
104.821421377 316.0
104.938400220 251.0
105.055379063 269.0
105.172357906 298.0
105.289336749 290.0
105.406315592 293.0
105.523294435 278.0
105.640273278 319.0
105.757252121 296.0
105.874230964 250.0
105.991209807 285.0
106.108188650 299.0
106.225167493 304.0
106.342146336 289.0
106.459125180 291.0
106.576104023 299.0
106.693082866 302.0
106.810061709 309.0
106.927040552 299.0
107.044019395 272.0
107.160998238 328.0
107.277977081 302.0
107.394955924 296.0
107.511934767 275.0
107.628913610 320.0
107.745892453 272.0
107.862871296 277.0
107.979850139 284.0
108.096828982 283.0
108.213807825 256.0
108.330786668 285.0
108.447765511 264.0
108.564744354 300.0
108.681723197 280.0
108.798702040 255.0
108.915680883 304.0
109.032659726 264.0
109.149638569 291.0
109.266617413 293.0
109.383596256 286.0
109.500575099 293.0
109.617553942 311.0
109.734532785 296.0
109.851511628 272.0
109.968490471 296.0
110.085469314 296.0
110.202448157 307.0
110.319427000 265.0
110.436405843 294.0
110.553384686 299.0
110.670363529 302.0
110.787342372 302.0
110.904321215 297.0
111.021300058 320.0
111.138278901 293.0
111.255257744 243.0
111.372236587 249.0
111.489215430 305.0
111.606194273 294.0
111.723173116 285.0
111.840151959 323.0
111.957130802 270.0
112.074109645 300.0
112.191088489 313.0
112.308067332 319.0
112.425046175 285.0
112.542025018 286.0
112.659003861 306.0
112.775982704 290.0
112.892961547 298.0
113.009940390 270.0
113.126919233 289.0
113.243898076 321.0
113.360876919 298.0
113.477855762 287.0
113.594834605 285.0
113.711813448 294.0
113.828792291 287.0
113.945771134 297.0
114.062749977 350.0
114.179728820 317.0
114.296707663 263.0
114.413686506 262.0
114.530665349 279.0
114.647644192 305.0
114.764623035 340.0
114.881601878 273.0
114.998580722 285.0
115.115559565 302.0
115.232538408 282.0
115.349517251 289.0
115.466496094 302.0
115.583474937 279.0
115.700453780 300.0
115.817432623 339.0
115.934411466 321.0
116.051390309 323.0
116.168369152 297.0
116.285347995 284.0
116.402326838 296.0
116.519305681 312.0
116.636284524 333.0
116.753263367 299.0
116.870242210 332.0
116.987221053 327.0
117.104199896 300.0
117.221178739 307.0
117.338157582 314.0
117.455136425 286.0
117.572115268 303.0
117.689094111 333.0
117.806072955 271.0
117.923051798 310.0
118.040030641 303.0
118.157009484 304.0
118.273988327 324.0
118.390967170 335.0
118.507946013 307.0
118.624924856 269.0
118.741903699 298.0
118.858882542 313.0
118.975861385 321.0
119.092840228 324.0
119.209819071 369.0
119.326797914 324.0
119.443776757 289.0
119.560755600 299.0
119.677734443 287.0
119.794713286 303.0
119.911692129 341.0
120.028670972 335.0
120.145649815 292.0
120.262628658 318.0
120.379607501 328.0
120.496586344 323.0
120.613565187 335.0
120.730544031 306.0
120.847522874 347.0
120.964501717 302.0
121.081480560 292.0
121.198459403 297.0
121.315438246 291.0
121.432417089 311.0
121.549395932 338.0
121.666374775 293.0
121.783353618 303.0
121.900332461 326.0
122.017311304 320.0
122.134290147 284.0
122.251268990 299.0
122.368247833 303.0
122.485226676 325.0
122.602205519 328.0
122.719184362 314.0
122.836163205 305.0
122.953142048 340.0
123.070120891 305.0
123.187099734 313.0
123.304078577 326.0
123.421057420 304.0
123.538036264 291.0
123.655015107 297.0
123.771993950 316.0
123.888972793 306.0
124.005951636 289.0
124.122930479 323.0
124.239909322 309.0
124.356888165 310.0
124.473867008 307.0
124.590845851 353.0
124.707824694 305.0
124.824803537 316.0
124.941782380 309.0
