4.921489420 190.0
5.038468263 217.0
5.155447106 222.0
5.272425949 175.0
5.389404792 208.0
5.506383635 224.0
5.623362478 214.0
5.740341321 209.0
5.857320164 232.0
5.974299007 250.0
6.091277850 241.0
6.208256693 228.0
6.325235536 270.0
6.442214380 244.0
6.559193223 287.0
6.676172066 261.0
6.793150909 262.0
6.910129752 293.0
7.027108595 284.0
7.144087438 311.0
7.261066281 310.0
7.378045124 293.0
7.495023967 263.0
7.612002810 287.0
7.728981653 313.0
7.845960496 318.0
7.962939339 292.0
8.079918182 318.0
8.196897025 284.0
8.313875868 333.0
8.430854711 342.0
8.547833554 341.0
8.664812397 299.0
8.781791240 344.0
8.898770083 309.0
9.015748926 303.0
9.132727769 310.0
9.249706613 338.0
9.366685456 348.0
9.483664299 318.0
9.600643142 353.0
9.717621985 307.0
9.834600828 376.0
9.951579671 290.0
10.068558514 353.0
10.185537357 379.0
10.302516200 354.0
10.419495043 378.0
10.536473886 341.0
10.653452729 401.0
10.770431572 390.0
10.887410415 378.0
11.004389258 362.0
11.121368101 382.0
11.238346944 355.0
11.355325787 399.0
11.472304630 371.0
11.589283473 362.0
11.706262316 365.0
11.823241159 386.0
11.940220002 341.0
12.057198845 372.0
12.174177689 379.0
12.291156532 413.0
12.408135375 348.0
12.525114218 385.0
12.642093061 390.0
12.759071904 402.0
12.876050747 386.0
12.993029590 395.0
13.110008433 353.0
13.226987276 400.0
13.343966119 388.0
13.460944962 359.0
13.577923805 386.0
13.694902648 362.0
13.811881491 337.0
13.928860334 358.0
14.045839177 364.0
14.162818020 371.0
14.279796863 358.0
14.396775706 351.0
14.513754549 376.0
14.630733392 376.0
14.747712235 385.0
14.864691078 340.0
14.981669922 380.0
15.098648765 374.0
15.215627608 327.0
15.332606451 362.0
15.449585294 366.0
15.566564137 360.0
15.683542980 366.0
15.800521823 331.0
15.917500666 362.0
16.034479509 372.0
16.151458352 334.0
16.268437195 389.0
16.385416038 307.0
16.502394881 321.0
16.619373724 331.0
16.736352567 314.0
16.853331410 297.0
16.970310253 338.0
17.087289096 341.0
17.204267939 352.0
17.321246782 324.0
17.438225625 320.0
17.555204468 332.0
17.672183311 324.0
17.789162155 323.0
17.906140998 292.0
18.023119841 344.0
18.140098684 289.0
18.257077527 304.0
18.374056370 289.0
18.491035213 284.0
18.608014056 300.0
18.724992899 299.0
18.841971742 324.0
18.958950585 310.0
19.075929428 312.0
19.192908271 306.0
19.309887114 312.0
19.426865957 304.0
19.543844800 262.0
19.660823643 285.0
19.777802486 283.0
19.894781329 297.0
20.011760172 275.0
20.128739015 300.0
20.245717858 284.0
20.362696701 269.0
20.479675544 273.0
20.596654387 303.0
20.713633231 303.0
20.830612074 257.0
20.947590917 251.0
21.064569760 302.0
21.181548603 248.0
21.298527446 241.0
21.415506289 254.0
21.532485132 248.0
21.649463975 268.0
21.766442818 238.0
21.883421661 258.0
22.000400504 251.0
22.117379347 269.0
22.234358190 238.0
22.351337033 275.0
22.468315876 273.0
22.585294719 273.0
22.702273562 286.0
22.819252405 282.0
22.936231248 252.0
23.053210091 269.0
23.170188934 282.0
23.287167777 256.0
23.404146620 269.0
23.521125464 244.0
23.638104307 276.0
23.755083150 248.0
23.872061993 250.0
23.989040836 286.0
24.106019679 251.0
24.222998522 249.0
24.339977365 270.0
24.456956208 228.0
24.573935051 243.0
24.690913894 224.0
24.807892737 269.0
24.924871580 271.0
25.041850423 262.0
25.158829266 261.0
25.275808109 246.0
25.392786952 234.0
25.509765795 225.0
25.626744638 227.0
25.743723481 223.0
25.860702324 252.0
25.977681167 231.0
26.094660010 243.0
26.211638853 214.0
26.328617696 210.0
26.445596540 250.0
26.562575383 235.0
26.679554226 243.0
26.796533069 225.0
26.913511912 239.0
27.030490755 232.0
27.147469598 217.0
27.264448441 232.0
27.381427284 258.0
27.498406127 275.0
27.615384970 236.0
27.732363813 238.0
27.849342656 241.0
27.966321499 214.0
28.083300342 202.0
28.200279185 216.0
28.317258028 258.0
28.434236871 283.0
28.551215714 362.0
28.668194557 431.0
28.785173400 382.0
28.902152243 290.0
29.019131086 266.0
29.136109929 234.0
29.253088773 285.0
29.370067616 467.0
29.487046459 646.0
29.604025302 553.0
29.721004145 270.0
29.837982988 214.0
29.954961831 218.0
30.071940674 231.0
30.188919517 223.0
30.305898360 203.0
30.422877203 220.0
30.539856046 196.0
30.656834889 216.0
30.773813732 198.0
30.890792575 249.0
31.007771418 236.0
31.124750261 248.0
31.241729104 227.0
31.358707947 249.0
31.475686790 263.0
31.592665633 254.0
31.709644476 225.0
31.826623319 231.0
31.943602162 221.0
32.060581005 230.0
32.177559849 217.0
32.294538692 186.0
32.411517535 208.0
32.528496378 224.0
32.645475221 213.0
32.762454064 228.0
32.879432907 203.0
32.996411750 218.0
33.113390593 208.0
33.230369436 216.0
33.347348279 230.0
33.464327122 209.0
33.581305965 218.0
33.698284808 177.0
33.815263651 224.0
33.932242494 227.0
34.049221337 241.0
34.166200180 209.0
34.283179023 229.0
34.400157866 206.0
34.517136709 211.0
34.634115552 218.0
34.751094395 210.0
34.868073238 241.0
34.985052082 206.0
35.102030925 245.0
35.219009768 235.0
35.335988611 256.0
35.452967454 269.0
35.569946297 236.0
35.686925140 246.0
35.803903983 241.0
35.920882826 324.0
36.037861669 385.0
36.154840512 387.0
36.271819355 365.0
36.388798198 311.0
36.505777041 286.0
36.622755884 309.0
36.739734727 335.0
36.856713570 339.0
36.973692413 333.0
37.090671256 303.0
37.207650099 280.0
37.324628942 325.0
37.441607785 303.0
37.558586628 309.0
37.675565471 327.0
37.792544315 337.0
37.909523158 331.0
38.026502001 310.0
38.143480844 360.0
38.260459687 331.0
38.377438530 359.0
38.494417373 335.0
38.611396216 352.0
38.728375059 390.0
38.845353902 357.0
38.962332745 361.0
39.079311588 346.0
39.196290431 408.0
39.313269274 408.0
39.430248117 493.0
39.547226960 530.0
39.664205803 455.0
39.781184646 406.0
39.898163489 389.0
40.015142332 419.0
40.132121175 412.0
40.249100018 436.0
40.366078861 407.0
40.483057704 433.0
40.600036547 475.0
40.717015391 483.0
40.833994234 461.0
40.950973077 464.0
41.067951920 474.0
41.184930763 508.0
41.301909606 464.0
41.418888449 539.0
41.535867292 547.0
41.652846135 561.0
41.769824978 685.0
41.886803821 893.0
42.003782664 951.0
42.120761507 778.0
42.237740350 618.0
42.354719193 564.0
42.471698036 579.0
42.588676879 557.0
42.705655722 505.0
42.822634565 527.0
42.939613408 554.0
43.056592251 642.0
43.173571094 791.0
43.290549937 884.0
43.407528780 989.0
43.524507624 1122.0
43.641486467 991.0
43.758465310 875.0
43.875444153 729.0
43.992422996 621.0
44.109401839 551.0
44.226380682 566.0
44.343359525 564.0
44.460338368 547.0
44.577317211 585.0
44.694296054 660.0
44.811274897 812.0
44.928253740 914.0
45.045232583 762.0
45.162211426 655.0
45.279190269 544.0
45.396169112 518.0
45.513147955 496.0
45.630126798 516.0
45.747105641 501.0
45.864084484 524.0
45.981063327 465.0
46.098042170 504.0
46.215021013 534.0
46.331999856 488.0
46.448978700 515.0
46.565957543 442.0
46.682936386 450.0
46.799915229 462.0
46.916894072 497.0
47.033872915 510.0
47.150851758 581.0
47.267830601 512.0
47.384809444 543.0
47.501788287 573.0
47.618767130 660.0
47.735745973 691.0
47.852724816 584.0
47.969703659 546.0
48.086682502 499.0
48.203661345 524.0
48.320640188 589.0
48.437619031 630.0
48.554597874 709.0
48.671576717 925.0
48.788555560 935.0
48.905534403 827.0
49.022513246 778.0
49.139492089 673.0
49.256470933 615.0
49.373449776 558.0
49.490428619 540.0
49.607407462 557.0
49.724386305 541.0
49.841365148 523.0
49.958343991 543.0
50.075322834 503.0
50.192301677 607.0
50.309280520 605.0
50.426259363 634.0
50.543238206 766.0
50.660217049 740.0
50.777195892 806.0
50.894174735 820.0
51.011153578 737.0
51.128132421 668.0
51.245111264 676.0
51.362090107 605.0
51.479068950 575.0
51.596047793 536.0
51.713026636 502.0
51.830005479 509.0
51.946984322 517.0
52.063963165 462.0
52.180942009 469.0
52.297920852 481.0
52.414899695 508.0
52.531878538 464.0
52.648857381 467.0
52.765836224 422.0
52.882815067 448.0
52.999793910 472.0
53.116772753 468.0
53.233751596 448.0
53.350730439 460.0
53.467709282 457.0
53.584688125 469.0
53.701666968 491.0
53.818645811 423.0
53.935624654 463.0
54.052603497 471.0
54.169582340 498.0
54.286561183 491.0
54.403540026 526.0
54.520518869 502.0
54.637497712 537.0
54.754476555 475.0
54.871455398 461.0
54.988434242 431.0
55.105413085 472.0
55.222391928 460.0
55.339370771 458.0
55.456349614 456.0
55.573328457 444.0
55.690307300 438.0
55.807286143 421.0
55.924264986 422.0
56.041243829 482.0
56.158222672 445.0
56.275201515 422.0
56.392180358 416.0
56.509159201 414.0
56.626138044 465.0
56.743116887 476.0
56.860095730 505.0
56.977074573 437.0
57.094053416 464.0
57.211032259 421.0
57.328011102 483.0
57.444989945 509.0
57.561968788 538.0
57.678947631 448.0
57.795926475 477.0
57.912905318 441.0
58.029884161 409.0
58.146863004 449.0
58.263841847 429.0
58.380820690 448.0
58.497799533 412.0
58.614778376 403.0
58.731757219 405.0
58.848736062 437.0
58.965714905 472.0
59.082693748 414.0
59.199672591 409.0
59.316651434 465.0
59.433630277 374.0
59.550609120 409.0
59.667587963 382.0
59.784566806 431.0
59.901545649 417.0
60.018524492 409.0
60.135503335 412.0
60.252482178 449.0
60.369461021 416.0
60.486439864 413.0
60.603418707 472.0
60.720397551 492.0
60.837376394 490.0
60.954355237 462.0
61.071334080 414.0
61.188312923 379.0
61.305291766 403.0
61.422270609 431.0
61.539249452 402.0
61.656228295 394.0
61.773207138 413.0
61.890185981 410.0
62.007164824 357.0
62.124143667 406.0
62.241122510 347.0
62.358101353 376.0
62.475080196 397.0
62.592059039 358.0
62.709037882 379.0
62.826016725 380.0
62.942995568 414.0
63.059974411 393.0
63.176953254 339.0
63.293932097 350.0
63.410910940 335.0
63.527889784 385.0
63.644868627 379.0
63.761847470 344.0
63.878826313 357.0
63.995805156 412.0
64.112783999 414.0
64.229762842 348.0
64.346741685 407.0
64.463720528 380.0
64.580699371 372.0
64.697678214 415.0
64.814657057 447.0
64.931635900 427.0
65.048614743 461.0
65.165593586 442.0
65.282572429 406.0
65.399551272 397.0
65.516530115 405.0
65.633508958 443.0
65.750487801 442.0
65.867466644 378.0
65.984445487 385.0
66.101424330 354.0
66.218403173 386.0
66.335382016 344.0
66.452360860 428.0
66.569339703 383.0
66.686318546 369.0
66.803297389 375.0
66.920276232 379.0
67.037255075 409.0
67.154233918 359.0
67.271212761 412.0
67.388191604 406.0
67.505170447 396.0
67.622149290 361.0
67.739128133 365.0
67.856106976 367.0
67.973085819 358.0
68.090064662 304.0
68.207043505 335.0
68.324022348 371.0
68.441001191 334.0
68.557980034 325.0
68.674958877 339.0
68.791937720 355.0
68.908916563 372.0
69.025895406 353.0
69.142874249 340.0
69.259853093 353.0
69.376831936 332.0
69.493810779 352.0
69.610789622 361.0
69.727768465 344.0
69.844747308 376.0
69.961726151 353.0
70.078704994 341.0
70.195683837 387.0
70.312662680 420.0
70.429641523 410.0
70.546620366 534.0
70.663599209 457.0
70.780578052 410.0
70.897556895 324.0
71.014535738 318.0
71.131514581 333.0
71.248493424 395.0
71.365472267 386.0
71.482451110 359.0
71.599429953 383.0
71.716408796 450.0
71.833387639 405.0
71.950366482 458.0
72.067345325 538.0
72.184324169 612.0
72.301303012 897.0
72.418281855 1312.0
72.535260698 1450.0
72.652239541 1258.0
72.769218384 976.0
72.886197227 835.0
73.003176070 650.0
73.120154913 551.0
73.237133756 464.0
73.354112599 401.0
73.471091442 397.0
73.588070285 408.0
73.705049128 375.0
73.822027971 320.0
73.939006814 375.0
74.055985657 312.0
74.172964500 342.0
74.289943343 311.0
74.406922186 361.0
74.523901029 364.0
74.640879872 348.0
74.757858715 332.0
74.874837558 337.0
74.991816402 371.0
75.108795245 378.0
75.225774088 331.0
75.342752931 334.0
75.459731774 390.0
75.576710617 379.0
75.693689460 354.0
75.810668303 327.0
75.927647146 366.0
76.044625989 332.0
76.161604832 373.0
76.278583675 387.0
76.395562518 324.0
76.512541361 314.0
76.629520204 304.0
76.746499047 386.0
76.863477890 314.0
76.980456733 348.0
77.097435576 333.0
77.214414419 361.0
77.331393262 362.0
77.448372105 345.0
77.565350948 374.0
77.682329791 368.0
77.799308635 379.0
77.916287478 340.0
78.033266321 324.0
78.150245164 327.0
78.267224007 368.0
78.384202850 319.0
78.501181693 344.0
78.618160536 361.0
78.735139379 330.0
78.852118222 342.0
78.969097065 328.0
79.086075908 303.0
79.203054751 310.0
79.320033594 339.0
79.437012437 331.0
79.553991280 351.0
79.670970123 399.0
79.787948966 338.0
79.904927809 340.0
80.021906652 340.0
80.138885495 328.0
80.255864338 313.0
80.372843181 335.0
80.489822024 327.0
80.606800867 326.0
80.723779711 348.0
80.840758554 350.0
80.957737397 332.0
81.074716240 380.0
81.191695083 364.0
81.308673926 360.0
81.425652769 351.0
81.542631612 390.0
81.659610455 399.0
81.776589298 362.0
81.893568141 367.0
82.010546984 397.0
82.127525827 385.0
82.244504670 407.0
82.361483513 462.0
82.478462356 445.0
82.595441199 437.0
82.712420042 427.0
82.829398885 428.0
82.946377728 360.0
83.063356571 390.0
83.180335414 341.0
83.297314257 373.0
83.414293100 372.0
83.531271944 357.0
83.648250787 367.0
83.765229630 375.0
83.882208473 383.0
83.999187316 406.0
84.116166159 371.0
84.233145002 379.0
84.350123845 389.0
84.467102688 379.0
84.584081531 338.0
84.701060374 392.0
84.818039217 390.0
84.935018060 365.0
85.051996903 342.0
85.168975746 339.0
85.285954589 369.0
85.402933432 375.0
85.519912275 379.0
85.636891118 388.0
85.753869961 362.0
85.870848804 348.0
85.987827647 321.0
86.104806490 376.0
86.221785333 389.0
86.338764176 358.0
86.455743020 366.0
86.572721863 392.0
86.689700706 416.0
86.806679549 366.0
86.923658392 397.0
87.040637235 383.0
87.157616078 399.0
87.274594921 405.0
87.391573764 453.0
87.508552607 449.0
87.625531450 455.0
87.742510293 525.0
87.859489136 538.0
87.976467979 599.0
88.093446822 649.0
88.210425665 598.0
88.327404508 580.0
88.444383351 513.0
88.561362194 502.0
88.678341037 458.0
88.795319880 474.0
88.912298723 394.0
89.029277566 440.0
89.146256409 366.0
89.263235253 382.0
89.380214096 386.0
89.497192939 379.0
89.614171782 365.0
89.731150625 346.0
89.848129468 394.0
89.965108311 382.0
90.082087154 390.0
90.199065997 351.0
90.316044840 379.0
90.433023683 340.0
90.550002526 394.0
90.666981369 361.0
90.783960212 381.0
90.900939055 368.0
91.017917898 344.0
91.134896741 342.0
91.251875584 396.0
91.368854427 389.0
91.485833270 385.0
91.602812113 407.0
91.719790956 375.0
91.836769799 441.0
91.953748642 393.0
92.070727485 394.0
92.187706329 441.0
92.304685172 445.0
92.421664015 366.0
92.538642858 389.0
92.655621701 388.0
92.772600544 386.0
92.889579387 372.0
93.006558230 378.0
93.123537073 386.0
93.240515916 394.0
93.357494759 376.0
93.474473602 364.0
93.591452445 367.0
93.708431288 389.0
93.825410131 390.0
93.942388974 361.0
94.059367817 393.0
94.176346660 365.0
94.293325503 375.0
94.410304346 399.0
94.527283189 374.0
94.644262032 412.0
94.761240875 428.0
94.878219718 387.0
94.995198562 465.0
95.112177405 450.0
95.229156248 419.0
95.346135091 408.0
95.463113934 414.0
95.580092777 381.0
95.697071620 388.0
95.814050463 375.0
95.931029306 372.0
96.048008149 381.0
96.164986992 374.0
96.281965835 430.0
96.398944678 429.0
96.515923521 395.0
96.632902364 386.0
96.749881207 417.0
96.866860050 399.0
96.983838893 416.0
97.100817736 415.0
97.217796579 359.0
97.334775422 443.0
97.451754265 401.0
97.568733108 450.0
97.685711951 400.0
97.802690795 397.0
97.919669638 401.0
98.036648481 399.0
98.153627324 373.0
98.270606167 420.0
98.387585010 397.0
98.504563853 431.0
98.621542696 442.0
98.738521539 401.0
98.855500382 399.0
98.972479225 429.0
99.089458068 413.0
99.206436911 445.0
99.323415754 454.0
99.440394597 389.0
99.557373440 392.0
99.674352283 374.0
99.791331126 387.0
99.908309969 399.0
100.025288812 393.0
100.142267655 392.0
100.259246498 390.0
100.376225341 390.0
100.493204184 414.0
100.610183027 389.0
100.727161871 402.0
100.844140714 392.0
100.961119557 399.0
101.078098400 368.0
101.195077243 438.0
101.312056086 393.0
101.429034929 372.0
101.546013772 393.0
101.662992615 408.0
101.779971458 422.0
101.896950301 387.0
102.013929144 357.0
102.130907987 400.0
102.247886830 376.0
102.364865673 381.0
102.481844516 382.0
102.598823359 394.0
102.715802202 385.0
102.832781045 368.0
102.949759888 392.0
103.066738731 416.0
103.183717574 367.0
103.300696417 402.0
103.417675260 407.0
103.534654104 415.0
103.651632947 378.0
103.768611790 402.0
103.885590633 414.0
104.002569476 380.0
104.119548319 415.0
104.236527162 407.0
104.353506005 397.0
104.470484848 380.0
104.587463691 450.0
104.704442534 371.0
104.821421377 393.0
104.938400220 392.0
105.055379063 407.0
105.172357906 433.0
105.289336749 362.0
105.406315592 369.0
105.523294435 394.0
105.640273278 394.0
105.757252121 394.0
105.874230964 435.0
105.991209807 393.0
106.108188650 390.0
106.225167493 406.0
106.342146336 368.0
106.459125180 393.0
106.576104023 394.0
106.693082866 382.0
106.810061709 383.0
106.927040552 378.0
107.044019395 365.0
107.160998238 367.0
107.277977081 386.0
107.394955924 387.0
107.511934767 403.0
107.628913610 355.0
107.745892453 443.0
107.862871296 410.0
107.979850139 368.0
108.096828982 380.0
108.213807825 361.0
108.330786668 407.0
108.447765511 402.0
108.564744354 375.0
108.681723197 385.0
108.798702040 395.0
108.915680883 392.0
109.032659726 372.0
109.149638569 395.0
109.266617413 350.0
109.383596256 390.0
109.500575099 379.0
109.617553942 423.0
109.734532785 402.0
109.851511628 372.0
109.968490471 390.0
110.085469314 339.0
110.202448157 380.0
110.319427000 364.0
110.436405843 396.0
110.553384686 373.0
110.670363529 405.0
110.787342372 420.0
110.904321215 414.0
111.021300058 407.0
111.138278901 371.0
111.255257744 371.0
111.372236587 387.0
111.489215430 403.0
111.606194273 371.0
111.723173116 401.0
111.840151959 394.0
111.957130802 399.0
112.074109645 366.0
112.191088489 357.0
112.308067332 421.0
112.425046175 373.0
112.542025018 416.0
112.659003861 346.0
112.775982704 344.0
112.892961547 342.0
113.009940390 421.0
113.126919233 381.0
113.243898076 376.0
113.360876919 379.0
113.477855762 389.0
113.594834605 378.0
113.711813448 376.0
113.828792291 387.0
113.945771134 379.0
114.062749977 402.0
114.179728820 381.0
114.296707663 408.0
114.413686506 381.0
114.530665349 380.0
114.647644192 421.0
114.764623035 433.0
114.881601878 376.0
114.998580722 382.0
115.115559565 358.0
115.232538408 389.0
115.349517251 388.0
115.466496094 392.0
115.583474937 403.0
115.700453780 455.0
115.817432623 399.0
115.934411466 393.0
116.051390309 378.0
116.168369152 436.0
116.285347995 402.0
116.402326838 396.0
116.519305681 375.0
116.636284524 362.0
116.753263367 412.0
116.870242210 405.0
116.987221053 429.0
117.104199896 358.0
117.221178739 427.0
117.338157582 402.0
117.455136425 403.0
117.572115268 333.0
117.689094111 364.0
117.806072955 366.0
117.923051798 408.0
118.040030641 393.0
118.157009484 378.0
118.273988327 383.0
118.390967170 421.0
118.507946013 352.0
118.624924856 392.0
118.741903699 378.0
118.858882542 415.0
118.975861385 380.0
119.092840228 407.0
119.209819071 417.0
119.326797914 417.0
119.443776757 408.0
119.560755600 455.0
119.677734443 372.0
119.794713286 387.0
119.911692129 367.0
120.028670972 423.0
120.145649815 407.0
120.262628658 429.0
120.379607501 412.0
120.496586344 403.0
120.613565187 365.0
120.730544031 415.0
120.847522874 414.0
120.964501717 410.0
121.081480560 412.0
121.198459403 417.0
121.315438246 406.0
121.432417089 399.0
121.549395932 390.0
121.666374775 401.0
121.783353618 371.0
121.900332461 417.0
122.017311304 359.0
122.134290147 407.0
122.251268990 385.0
122.368247833 379.0
122.485226676 402.0
122.602205519 420.0
122.719184362 401.0
122.836163205 374.0
122.953142048 412.0
123.070120891 393.0
123.187099734 390.0
123.304078577 419.0
123.421057420 385.0
123.538036264 379.0
123.655015107 405.0
123.771993950 406.0
123.888972793 400.0
124.005951636 390.0
124.122930479 348.0
124.239909322 414.0
124.356888165 399.0
124.473867008 383.0
124.590845851 395.0
124.707824694 364.0
124.824803537 399.0
124.941782380 379.0
