4.921489420 169.0
5.038468263 179.0
5.155447106 229.0
5.272425949 188.0
5.389404792 162.0
5.506383635 227.0
5.623362478 209.0
5.740341321 213.0
5.857320164 231.0
5.974299007 256.0
6.091277850 241.0
6.208256693 284.0
6.325235536 265.0
6.442214380 237.0
6.559193223 307.0
6.676172066 286.0
6.793150909 271.0
6.910129752 305.0
7.027108595 283.0
7.144087438 300.0
7.261066281 280.0
7.378045124 310.0
7.495023967 297.0
7.612002810 334.0
7.728981653 314.0
7.845960496 335.0
7.962939339 319.0
8.079918182 335.0
8.196897025 305.0
8.313875868 332.0
8.430854711 339.0
8.547833554 324.0
8.664812397 319.0
8.781791240 357.0
8.898770083 326.0
9.015748926 342.0
9.132727769 378.0
9.249706613 310.0
9.366685456 360.0
9.483664299 364.0
9.600643142 378.0
9.717621985 381.0
9.834600828 386.0
9.951579671 373.0
10.068558514 342.0
10.185537357 376.0
10.302516200 340.0
10.419495043 302.0
10.536473886 382.0
10.653452729 362.0
10.770431572 350.0
10.887410415 367.0
11.004389258 334.0
11.121368101 378.0
11.238346944 415.0
11.355325787 371.0
11.472304630 371.0
11.589283473 394.0
11.706262316 408.0
11.823241159 390.0
11.940220002 386.0
12.057198845 365.0
12.174177689 389.0
12.291156532 367.0
12.408135375 376.0
12.525114218 381.0
12.642093061 351.0
12.759071904 360.0
12.876050747 374.0
12.993029590 357.0
13.110008433 371.0
13.226987276 359.0
13.343966119 376.0
13.460944962 378.0
13.577923805 387.0
13.694902648 366.0
13.811881491 364.0
13.928860334 402.0
14.045839177 352.0
14.162818020 358.0
14.279796863 389.0
14.396775706 338.0
14.513754549 351.0
14.630733392 361.0
14.747712235 359.0
14.864691078 342.0
14.981669922 358.0
15.098648765 357.0
15.215627608 355.0
15.332606451 342.0
15.449585294 350.0
15.566564137 359.0
15.683542980 303.0
15.800521823 352.0
15.917500666 316.0
16.034479509 323.0
16.151458352 306.0
16.268437195 328.0
16.385416038 312.0
16.502394881 292.0
16.619373724 313.0
16.736352567 325.0
16.853331410 333.0
16.970310253 302.0
17.087289096 269.0
17.204267939 271.0
17.321246782 309.0
17.438225625 311.0
17.555204468 293.0
17.672183311 277.0
17.789162155 307.0
17.906140998 254.0
18.023119841 286.0
18.140098684 300.0
18.257077527 254.0
18.374056370 248.0
18.491035213 272.0
18.608014056 259.0
18.724992899 262.0
18.841971742 270.0
18.958950585 270.0
19.075929428 270.0
19.192908271 272.0
19.309887114 258.0
19.426865957 251.0
19.543844800 245.0
19.660823643 235.0
19.777802486 217.0
19.894781329 223.0
20.011760172 221.0
20.128739015 234.0
20.245717858 229.0
20.362696701 241.0
20.479675544 206.0
20.596654387 231.0
20.713633231 225.0
20.830612074 220.0
20.947590917 232.0
21.064569760 232.0
21.181548603 202.0
21.298527446 177.0
21.415506289 215.0
21.532485132 207.0
21.649463975 208.0
21.766442818 176.0
21.883421661 207.0
22.000400504 170.0
22.117379347 197.0
22.234358190 197.0
22.351337033 181.0
22.468315876 198.0
22.585294719 195.0
22.702273562 207.0
22.819252405 193.0
22.936231248 174.0
23.053210091 146.0
23.170188934 147.0
23.287167777 170.0
23.404146620 191.0
23.521125464 182.0
23.638104307 183.0
23.755083150 154.0
23.872061993 168.0
23.989040836 180.0
24.106019679 156.0
24.222998522 172.0
24.339977365 188.0
24.456956208 154.0
24.573935051 155.0
24.690913894 143.0
24.807892737 153.0
24.924871580 169.0
25.041850423 166.0
25.158829266 156.0
25.275808109 166.0
25.392786952 156.0
25.509765795 132.0
25.626744638 153.0
25.743723481 167.0
25.860702324 165.0
25.977681167 152.0
26.094660010 135.0
26.211638853 147.0
26.328617696 118.0
26.445596540 131.0
26.562575383 165.0
26.679554226 156.0
26.796533069 160.0
26.913511912 147.0
27.030490755 145.0
27.147469598 166.0
27.264448441 135.0
27.381427284 138.0
27.498406127 133.0
27.615384970 128.0
27.732363813 117.0
27.849342656 135.0
27.966321499 142.0
28.083300342 143.0
28.200279185 140.0
28.317258028 134.0
28.434236871 127.0
28.551215714 176.0
28.668194557 221.0
28.785173400 197.0
28.902152243 193.0
29.019131086 151.0
29.136109929 160.0
29.253088773 160.0
29.370067616 320.0
29.487046459 317.0
29.604025302 170.0
29.721004145 148.0
29.837982988 146.0
29.954961831 118.0
30.071940674 120.0
30.188919517 124.0
30.305898360 118.0
30.422877203 124.0
30.539856046 94.0
30.656834889 121.0
30.773813732 135.0
30.890792575 121.0
31.007771418 134.0
31.124750261 135.0
31.241729104 132.0
31.358707947 158.0
31.475686790 152.0
31.592665633 135.0
31.709644476 153.0
31.826623319 159.0
31.943602162 155.0
32.060581005 160.0
32.177559849 163.0
32.294538692 160.0
32.411517535 155.0
32.528496378 182.0
32.645475221 176.0
32.762454064 181.0
32.879432907 189.0
32.996411750 193.0
33.113390593 200.0
33.230369436 206.0
33.347348279 182.0
33.464327122 207.0
33.581305965 186.0
33.698284808 190.0
33.815263651 213.0
33.932242494 234.0
34.049221337 209.0
34.166200180 246.0
34.283179023 248.0
34.400157866 276.0
34.517136709 255.0
34.634115552 246.0
34.751094395 290.0
34.868073238 234.0
34.985052082 245.0
35.102030925 273.0
35.219009768 250.0
35.335988611 297.0
35.452967454 248.0
35.569946297 287.0
35.686925140 287.0
35.803903983 332.0
35.920882826 299.0
36.037861669 344.0
36.154840512 346.0
36.271819355 348.0
36.388798198 298.0
36.505777041 325.0
36.622755884 334.0
36.739734727 311.0
36.856713570 379.0
36.973692413 312.0
37.090671256 350.0
37.207650099 347.0
37.324628942 362.0
37.441607785 385.0
37.558586628 369.0
37.675565471 334.0
37.792544315 332.0
37.909523158 332.0
38.026502001 344.0
38.143480844 362.0
38.260459687 333.0
38.377438530 351.0
38.494417373 302.0
38.611396216 326.0
38.728375059 317.0
38.845353902 387.0
38.962332745 388.0
39.079311588 369.0
39.196290431 380.0
39.313269274 340.0
39.430248117 385.0
39.547226960 383.0
39.664205803 330.0
39.781184646 328.0
39.898163489 321.0
40.015142332 347.0
40.132121175 361.0
40.249100018 352.0
40.366078861 345.0
40.483057704 379.0
40.600036547 385.0
40.717015391 345.0
40.833994234 374.0
40.950973077 353.0
41.067951920 359.0
41.184930763 341.0
41.301909606 364.0
41.418888449 410.0
41.535867292 388.0
41.652846135 448.0
41.769824978 510.0
41.886803821 712.0
42.003782664 799.0
42.120761507 653.0
42.237740350 525.0
42.354719193 417.0
42.471698036 409.0
42.588676879 394.0
42.705655722 396.0
42.822634565 397.0
42.939613408 440.0
43.056592251 455.0
43.173571094 556.0
43.290549937 662.0
43.407528780 787.0
43.524507624 949.0
43.641486467 831.0
43.758465310 732.0
43.875444153 570.0
43.992422996 483.0
44.109401839 436.0
44.226380682 430.0
44.343359525 410.0
44.460338368 426.0
44.577317211 472.0
44.694296054 433.0
44.811274897 485.0
44.928253740 469.0
45.045232583 444.0
45.162211426 413.0
45.279190269 382.0
45.396169112 383.0
45.513147955 374.0
45.630126798 360.0
45.747105641 373.0
45.864084484 352.0
45.981063327 367.0
46.098042170 428.0
46.215021013 360.0
46.331999856 345.0
46.448978700 347.0
46.565957543 327.0
46.682936386 354.0
46.799915229 361.0
46.916894072 383.0
47.033872915 421.0
47.150851758 414.0
47.267830601 402.0
47.384809444 367.0
47.501788287 419.0
47.618767130 454.0
47.735745973 364.0
47.852724816 386.0
47.969703659 345.0
48.086682502 405.0
48.203661345 396.0
48.320640188 457.0
48.437619031 447.0
48.554597874 586.0
48.671576717 611.0
48.788555560 625.0
48.905534403 663.0
49.022513246 700.0
49.139492089 627.0
49.256470933 499.0
49.373449776 400.0
49.490428619 420.0
49.607407462 361.0
49.724386305 366.0
49.841365148 392.0
49.958343991 389.0
50.075322834 442.0
50.192301677 434.0
50.309280520 489.0
50.426259363 553.0
50.543238206 577.0
50.660217049 611.0
50.777195892 691.0
50.894174735 643.0
51.011153578 620.0
51.128132421 574.0
51.245111264 497.0
51.362090107 437.0
51.479068950 440.0
51.596047793 389.0
51.713026636 367.0
51.830005479 389.0
51.946984322 368.0
52.063963165 341.0
52.180942009 366.0
52.297920852 339.0
52.414899695 382.0
52.531878538 364.0
52.648857381 328.0
52.765836224 334.0
52.882815067 368.0
52.999793910 365.0
53.116772753 341.0
53.233751596 350.0
53.350730439 379.0
53.467709282 358.0
53.584688125 332.0
53.701666968 362.0
53.818645811 341.0
53.935624654 368.0
54.052603497 347.0
54.169582340 350.0
54.286561183 379.0
54.403540026 358.0
54.520518869 380.0
54.637497712 348.0
54.754476555 381.0
54.871455398 369.0
54.988434242 355.0
55.105413085 354.0
55.222391928 342.0
55.339370771 345.0
55.456349614 373.0
55.573328457 352.0
55.690307300 345.0
55.807286143 364.0
55.924264986 333.0
56.041243829 330.0
56.158222672 337.0
56.275201515 367.0
56.392180358 375.0
56.509159201 342.0
56.626138044 350.0
56.743116887 365.0
56.860095730 330.0
56.977074573 354.0
57.094053416 353.0
57.211032259 347.0
57.328011102 353.0
57.444989945 357.0
57.561968788 369.0
57.678947631 389.0
57.795926475 372.0
57.912905318 355.0
58.029884161 372.0
58.146863004 332.0
58.263841847 325.0
58.380820690 345.0
58.497799533 364.0
58.614778376 361.0
58.731757219 358.0
58.848736062 328.0
58.965714905 386.0
59.082693748 331.0
59.199672591 351.0
59.316651434 373.0
59.433630277 350.0
59.550609120 353.0
59.667587963 333.0
59.784566806 394.0
59.901545649 366.0
60.018524492 382.0
60.135503335 401.0
60.252482178 366.0
60.369461021 401.0
60.486439864 396.0
60.603418707 374.0
60.720397551 430.0
60.837376394 385.0
60.954355237 351.0
61.071334080 382.0
61.188312923 367.0
61.305291766 382.0
61.422270609 369.0
61.539249452 373.0
61.656228295 379.0
61.773207138 342.0
61.890185981 378.0
62.007164824 342.0
62.124143667 354.0
62.241122510 355.0
62.358101353 353.0
62.475080196 395.0
62.592059039 354.0
62.709037882 354.0
62.826016725 358.0
62.942995568 415.0
63.059974411 371.0
63.176953254 358.0
63.293932097 330.0
63.410910940 375.0
63.527889784 415.0
63.644868627 364.0
63.761847470 358.0
63.878826313 368.0
63.995805156 352.0
64.112783999 350.0
64.229762842 359.0
64.346741685 373.0
64.463720528 372.0
64.580699371 408.0
64.697678214 371.0
64.814657057 426.0
64.931635900 412.0
65.048614743 409.0
65.165593586 381.0
65.282572429 386.0
65.399551272 372.0
65.516530115 382.0
65.633508958 378.0
65.750487801 380.0
65.867466644 372.0
65.984445487 360.0
66.101424330 350.0
66.218403173 415.0
66.335382016 379.0
66.452360860 371.0
66.569339703 426.0
66.686318546 368.0
66.803297389 378.0
66.920276232 390.0
67.037255075 394.0
67.154233918 365.0
67.271212761 350.0
67.388191604 414.0
67.505170447 426.0
67.622149290 372.0
67.739128133 421.0
67.856106976 376.0
67.973085819 365.0
68.090064662 380.0
68.207043505 360.0
68.324022348 354.0
68.441001191 355.0
68.557980034 341.0
68.674958877 359.0
68.791937720 352.0
68.908916563 402.0
69.025895406 347.0
69.142874249 392.0
69.259853093 387.0
69.376831936 369.0
69.493810779 351.0
69.610789622 357.0
69.727768465 426.0
69.844747308 350.0
69.961726151 376.0
70.078704994 375.0
70.195683837 357.0
70.312662680 348.0
70.429641523 401.0
70.546620366 392.0
70.663599209 412.0
70.780578052 385.0
70.897556895 392.0
71.014535738 393.0
71.131514581 386.0
71.248493424 481.0
71.365472267 458.0
71.482451110 453.0
71.599429953 475.0
71.716408796 482.0
71.833387639 479.0
71.950366482 641.0
72.067345325 688.0
72.184324169 942.0
72.301303012 1322.0
72.418281855 2091.0
72.535260698 2254.0
72.652239541 2049.0
72.769218384 1533.0
72.886197227 1128.0
73.003176070 838.0
73.120154913 612.0
73.237133756 582.0
73.354112599 478.0
73.471091442 461.0
73.588070285 409.0
73.705049128 437.0
73.822027971 413.0
73.939006814 423.0
74.055985657 383.0
74.172964500 422.0
74.289943343 434.0
74.406922186 373.0
74.523901029 388.0
74.640879872 387.0
74.757858715 365.0
74.874837558 352.0
74.991816402 380.0
75.108795245 353.0
75.225774088 402.0
75.342752931 381.0
75.459731774 395.0
75.576710617 376.0
75.693689460 399.0
75.810668303 376.0
75.927647146 405.0
76.044625989 399.0
76.161604832 379.0
76.278583675 396.0
76.395562518 408.0
76.512541361 382.0
76.629520204 378.0
76.746499047 375.0
76.863477890 390.0
76.980456733 359.0
77.097435576 344.0
77.214414419 358.0
77.331393262 386.0
77.448372105 344.0
77.565350948 385.0
77.682329791 365.0
77.799308635 364.0
77.916287478 334.0
78.033266321 359.0
78.150245164 318.0
78.267224007 369.0
78.384202850 385.0
78.501181693 350.0
78.618160536 397.0
78.735139379 368.0
78.852118222 387.0
78.969097065 359.0
79.086075908 337.0
79.203054751 369.0
79.320033594 396.0
79.437012437 344.0
79.553991280 361.0
79.670970123 374.0
79.787948966 361.0
79.904927809 350.0
80.021906652 361.0
80.138885495 332.0
80.255864338 368.0
80.372843181 328.0
80.489822024 348.0
80.606800867 344.0
80.723779711 341.0
80.840758554 364.0
80.957737397 357.0
81.074716240 350.0
81.191695083 422.0
81.308673926 381.0
81.425652769 368.0
81.542631612 379.0
81.659610455 387.0
81.776589298 400.0
81.893568141 424.0
82.010546984 390.0
82.127525827 401.0
82.244504670 415.0
82.361483513 456.0
82.478462356 422.0
82.595441199 410.0
82.712420042 409.0
82.829398885 430.0
82.946377728 368.0
83.063356571 372.0
83.180335414 376.0
83.297314257 369.0
83.414293100 369.0
83.531271944 332.0
83.648250787 364.0
83.765229630 351.0
83.882208473 368.0
83.999187316 376.0
84.116166159 355.0
84.233145002 316.0
84.350123845 361.0
84.467102688 397.0
84.584081531 361.0
84.701060374 361.0
84.818039217 351.0
84.935018060 403.0
85.051996903 331.0
85.168975746 388.0
85.285954589 381.0
85.402933432 335.0
85.519912275 347.0
85.636891118 348.0
85.753869961 365.0
85.870848804 369.0
85.987827647 366.0
86.104806490 371.0
86.221785333 375.0
86.338764176 371.0
86.455743020 346.0
86.572721863 348.0
86.689700706 390.0
86.806679549 358.0
86.923658392 394.0
87.040637235 407.0
87.157616078 403.0
87.274594921 423.0
87.391573764 461.0
87.508552607 414.0
87.625531450 469.0
87.742510293 563.0
87.859489136 604.0
87.976467979 618.0
88.093446822 598.0
88.210425665 613.0
88.327404508 579.0
88.444383351 552.0
88.561362194 470.0
88.678341037 414.0
88.795319880 440.0
88.912298723 378.0
89.029277566 413.0
89.146256409 364.0
89.263235253 397.0
89.380214096 379.0
89.497192939 350.0
89.614171782 382.0
89.731150625 366.0
89.848129468 364.0
89.965108311 386.0
90.082087154 358.0
90.199065997 367.0
90.316044840 353.0
90.433023683 361.0
90.550002526 393.0
90.666981369 386.0
90.783960212 345.0
90.900939055 371.0
91.017917898 358.0
91.134896741 378.0
91.251875584 357.0
91.368854427 378.0
91.485833270 410.0
91.602812113 412.0
91.719790956 347.0
91.836769799 378.0
91.953748642 422.0
92.070727485 392.0
92.187706329 395.0
92.304685172 423.0
92.421664015 390.0
92.538642858 375.0
92.655621701 358.0
92.772600544 397.0
92.889579387 395.0
93.006558230 375.0
93.123537073 400.0
93.240515916 401.0
93.357494759 401.0
93.474473602 365.0
93.591452445 355.0
93.708431288 382.0
93.825410131 351.0
93.942388974 383.0
94.059367817 388.0
94.176346660 373.0
94.293325503 354.0
94.410304346 394.0
94.527283189 393.0
94.644262032 367.0
94.761240875 381.0
94.878219718 374.0
94.995198562 393.0
95.112177405 422.0
95.229156248 400.0
95.346135091 403.0
95.463113934 354.0
95.580092777 367.0
95.697071620 395.0
95.814050463 366.0
95.931029306 367.0
96.048008149 376.0
96.164986992 360.0
96.281965835 353.0
96.398944678 386.0
96.515923521 373.0
96.632902364 366.0
96.749881207 396.0
96.866860050 379.0
96.983838893 312.0
97.100817736 378.0
97.217796579 367.0
97.334775422 347.0
97.451754265 371.0
97.568733108 397.0
97.685711951 408.0
97.802690795 378.0
97.919669638 366.0
98.036648481 355.0
98.153627324 376.0
98.270606167 364.0
98.387585010 373.0
98.504563853 392.0
98.621542696 395.0
98.738521539 362.0
98.855500382 390.0
98.972479225 352.0
99.089458068 362.0
99.206436911 426.0
99.323415754 394.0
99.440394597 361.0
99.557373440 347.0
99.674352283 415.0
99.791331126 348.0
99.908309969 386.0
100.025288812 361.0
100.142267655 351.0
100.259246498 386.0
100.376225341 387.0
100.493204184 346.0
100.610183027 378.0
100.727161871 361.0
100.844140714 362.0
100.961119557 360.0
101.078098400 316.0
101.195077243 375.0
101.312056086 364.0
101.429034929 387.0
101.546013772 417.0
101.662992615 337.0
101.779971458 423.0
101.896950301 347.0
102.013929144 368.0
102.130907987 352.0
102.247886830 354.0
102.364865673 401.0
102.481844516 368.0
102.598823359 397.0
102.715802202 364.0
102.832781045 347.0
102.949759888 345.0
103.066738731 381.0
103.183717574 358.0
103.300696417 346.0
103.417675260 345.0
103.534654104 371.0
103.651632947 374.0
103.768611790 367.0
103.885590633 375.0
104.002569476 351.0
104.119548319 362.0
104.236527162 372.0
104.353506005 361.0
104.470484848 332.0
104.587463691 351.0
104.704442534 374.0
104.821421377 346.0
104.938400220 383.0
105.055379063 393.0
105.172357906 382.0
105.289336749 352.0
105.406315592 371.0
105.523294435 339.0
105.640273278 376.0
105.757252121 359.0
105.874230964 396.0
105.991209807 362.0
106.108188650 406.0
106.225167493 386.0
106.342146336 395.0
106.459125180 412.0
106.576104023 355.0
106.693082866 381.0
106.810061709 353.0
106.927040552 365.0
107.044019395 385.0
107.160998238 366.0
107.277977081 361.0
107.394955924 400.0
107.511934767 374.0
107.628913610 364.0
107.745892453 331.0
107.862871296 351.0
107.979850139 368.0
108.096828982 367.0
108.213807825 372.0
108.330786668 357.0
108.447765511 359.0
108.564744354 358.0
108.681723197 330.0
108.798702040 368.0
108.915680883 335.0
109.032659726 382.0
109.149638569 373.0
109.266617413 380.0
109.383596256 403.0
109.500575099 399.0
109.617553942 383.0
109.734532785 388.0
109.851511628 337.0
109.968490471 362.0
110.085469314 371.0
110.202448157 371.0
110.319427000 373.0
110.436405843 367.0
110.553384686 362.0
110.670363529 339.0
110.787342372 385.0
110.904321215 396.0
111.021300058 410.0
111.138278901 359.0
111.255257744 364.0
111.372236587 388.0
111.489215430 388.0
111.606194273 321.0
111.723173116 341.0
111.840151959 374.0
111.957130802 402.0
112.074109645 375.0
112.191088489 366.0
112.308067332 373.0
112.425046175 383.0
112.542025018 327.0
112.659003861 369.0
112.775982704 383.0
112.892961547 383.0
113.009940390 335.0
113.126919233 385.0
113.243898076 385.0
113.360876919 366.0
113.477855762 367.0
113.594834605 368.0
113.711813448 361.0
113.828792291 405.0
113.945771134 373.0
114.062749977 400.0
114.179728820 387.0
114.296707663 359.0
114.413686506 408.0
114.530665349 369.0
114.647644192 347.0
114.764623035 358.0
114.881601878 392.0
114.998580722 393.0
115.115559565 350.0
115.232538408 332.0
115.349517251 367.0
115.466496094 405.0
115.583474937 417.0
115.700453780 413.0
115.817432623 440.0
115.934411466 426.0
116.051390309 400.0
116.168369152 390.0
116.285347995 376.0
116.402326838 390.0
116.519305681 396.0
116.636284524 394.0
116.753263367 397.0
116.870242210 390.0
116.987221053 392.0
117.104199896 416.0
117.221178739 373.0
117.338157582 397.0
117.455136425 388.0
117.572115268 339.0
117.689094111 362.0
117.806072955 380.0
117.923051798 406.0
118.040030641 405.0
118.157009484 365.0
118.273988327 385.0
118.390967170 415.0
118.507946013 383.0
118.624924856 386.0
118.741903699 335.0
118.858882542 419.0
118.975861385 414.0
119.092840228 413.0
119.209819071 405.0
119.326797914 400.0
119.443776757 431.0
119.560755600 360.0
119.677734443 386.0
119.794713286 395.0
119.911692129 412.0
120.028670972 380.0
120.145649815 397.0
120.262628658 416.0
120.379607501 414.0
120.496586344 430.0
120.613565187 405.0
120.730544031 422.0
120.847522874 423.0
120.964501717 415.0
121.081480560 366.0
121.198459403 399.0
121.315438246 402.0
121.432417089 390.0
121.549395932 430.0
121.666374775 396.0
121.783353618 410.0
121.900332461 365.0
122.017311304 352.0
122.134290147 392.0
122.251268990 366.0
122.368247833 357.0
122.485226676 389.0
122.602205519 397.0
122.719184362 362.0
122.836163205 428.0
122.953142048 414.0
123.070120891 414.0
123.187099734 412.0
123.304078577 402.0
123.421057420 374.0
123.538036264 386.0
123.655015107 413.0
123.771993950 407.0
123.888972793 375.0
124.005951636 360.0
124.122930479 387.0
124.239909322 365.0
124.356888165 400.0
124.473867008 395.0
124.590845851 381.0
124.707824694 403.0
124.824803537 390.0
124.941782380 368.0
